EXPLAIN
TAG	CORPOT
TITLE	LABEL	Mats	Test Identifier
DATE	LABEL	15.2.2023	Date
TIME	LABEL	15.24.35	Time
NOTES	NOTES	1	Notes...
	
PSTAT	PSTAT	PCI4G750-47063	Potentiostat
TIMEOUT	QUANT	3,00000E+002	Total Time (s)
SAMPLETIME	QUANT	1,00000E+000	Sample Period (s)
STABILITY	QUANT	0,00000E+000	Stability (mV/s)
AREA	QUANT	1,00000E+000	Sample Area (cm^2)
SEQUENCER	TOGGLE	TRUE	Run as Sequence
PSTATMODEL	IQUANT	37	Pstat Model
PSTATSECTION	LABEL	PCI4G750-47063	Pstat Section
PSTATSERIALNO	LABEL	47063	Pstat Serial Number
CTRLMODE	IQUANT	1	Control Mode
IESTAB	IQUANT	2	I/E Stability
CASPEED	IQUANT	2	Control Amp Speed
CONVENTION	IQUANT	1	Current Convention
ICHRANGE	IQUANT	2	Ich Range
ICHRANGEMODE	TOGGLE	T	Ich Auto Range
ICHOFFSETENABLE	TOGGLE	F	Ich Offset Enable
ICHOFFSET	QUANT	0	Ich Offset (V)
ICHFILTER	IQUANT	3	Ich Filter
VCHRANGE	IQUANT	3	Vch Range
VCHRANGEMODE	TOGGLE	T	Vch Auto Range
VCHOFFSETENABLE	TOGGLE	F	Vch Offset Enable
VCHOFFSET	QUANT	0	Vch Offset (V)
VCHFILTER	IQUANT	3	Vch Filter
ACHRANGE	IQUANT	0	Ach Range
IERANGELOWERLIMIT	IQUANT	3	I/E Range Lower Limit
IERANGEMODE	TOGGLE	F	I/E AutoRange
IERANGE	IQUANT	10	I/E Range
POSFEEDENABLE	TOGGLE	F	Positive Feedback IR Comp
POSFEEDRESISTANCE	QUANT	0	Positive Feedback Resistance (ohm)
DCCALDATE	LABEL	15.11.2022	DC Calibration Date
ACCALDATE	LABEL	15.11.2022	AC Calibration Date
FRAMEWORKVERSION	QUANT	6,33	Framework Version
CURVE	TABLE	297
	Pt	T	Vf	Vm	Ach	Over
	#	s	V vs. Ref.	V	V	bits
	0	1,01003	-6,63012E-001	-6,63012E-001	6,58280E-004	...........
	1	2,02005	-6,63008E-001	-6,62762E-001	6,58280E-004	...........
	2	3,03008	-6,62974E-001	-6,62312E-001	6,58280E-004	...........
	3	4,0401	-6,62873E-001	-6,62212E-001	6,58280E-004	...........
	4	5,05013	-6,62709E-001	-6,63012E-001	6,58280E-004	...........
	5	6,06015	-6,62591E-001	-6,63312E-001	4,58280E-004	...........
	6	7,07018	-6,62618E-001	-6,62212E-001	6,58280E-004	...........
	7	8,0802	-6,62705E-001	-6,62012E-001	6,58280E-004	...........
	8	9,09023	-6,62658E-001	-6,61312E-001	7,58280E-004	...........
	9	10,1003	-6,62457E-001	-6,64412E-001	5,58280E-004	...........
	10	11,1103	-6,62371E-001	-6,63812E-001	6,58280E-004	...........
	11	12,1203	-6,62647E-001	-6,64012E-001	6,58280E-004	...........
	12	13,1303	-6,63166E-001	-6,64012E-001	6,58280E-004	...........
	13	14,1404	-6,63600E-001	-6,62362E-001	6,58280E-004	...........
	14	15,1504	-6,63737E-001	-6,63962E-001	6,58280E-004	...........
	15	16,1604	-6,63647E-001	-6,64362E-001	6,58280E-004	...........
	16	17,1704	-6,63593E-001	-6,63812E-001	6,58280E-004	...........
	17	18,1805	-6,63744E-001	-6,66262E-001	6,58280E-004	...........
	18	19,1905	-6,64106E-001	-6,65212E-001	5,58280E-004	...........
	19	20,2005	-6,64583E-001	-6,64512E-001	5,58280E-004	...........
	20	21,2105	-6,64945E-001	-6,64412E-001	6,58280E-004	...........
	21	22,2206	-6,65004E-001	-6,64412E-001	6,58280E-004	...........
	22	23,2306	-6,64838E-001	-6,64812E-001	6,58280E-004	...........
	23	24,2406	-6,64675E-001	-6,65412E-001	6,58280E-004	...........
	24	25,2506	-6,64702E-001	-6,66412E-001	7,58280E-004	...........
	25	26,2607	-6,64966E-001	-6,65462E-001	5,58280E-004	...........
	26	27,2707	-6,65340E-001	-6,65762E-001	6,58280E-004	...........
	27	28,2807	-6,65609E-001	-6,64962E-001	6,58280E-004	...........
	28	29,2907	-6,65659E-001	-6,65412E-001	6,58280E-004	...........
	29	30,3008	-6,65540E-001	-6,64862E-001	6,58280E-004	...........
	30	31,3108	-6,65382E-001	-6,66012E-001	6,58280E-004	...........
	31	32,3208	-6,65325E-001	-6,66362E-001	6,58280E-004	...........
	32	33,3308	-6,65452E-001	-6,65812E-001	6,58280E-004	...........
	33	34,3409	-6,65692E-001	-6,65862E-001	6,58280E-004	...........
	34	35,3509	-6,65873E-001	-6,65612E-001	6,58280E-004	...........
	35	36,3609	-6,65886E-001	-6,64462E-001	6,58280E-004	...........
	36	37,3709	-6,65754E-001	-6,67362E-001	6,58280E-004	...........
	37	38,381	-6,65661E-001	-6,66012E-001	6,58280E-004	...........
	38	39,391	-6,65771E-001	-6,65962E-001	5,58280E-004	...........
	39	40,401	-6,66000E-001	-6,67012E-001	6,58280E-004	...........
	40	41,411	-6,66193E-001	-6,65912E-001	5,58280E-004	...........
	41	42,4211	-6,66328E-001	-6,67262E-001	6,58280E-004	...........
	42	43,4311	-6,66458E-001	-6,67312E-001	6,58280E-004	...........
	43	44,4411	-6,66618E-001	-6,65712E-001	6,58280E-004	...........
	44	45,4511	-6,66713E-001	-6,65862E-001	6,58280E-004	...........
	45	46,4612	-6,66603E-001	-6,66112E-001	7,58280E-004	...........
	46	47,4712	-6,66364E-001	-6,66812E-001	7,58280E-004	...........
	47	48,4812	-6,66223E-001	-6,66562E-001	4,58280E-004	...........
	48	49,4912	-6,66254E-001	-6,65612E-001	5,58280E-004	...........
	49	50,5013	-6,66311E-001	-6,66212E-001	7,58280E-004	...........
	50	51,5113	-6,66273E-001	-6,66312E-001	5,58280E-004	...........
	51	52,5213	-6,66211E-001	-6,67012E-001	5,58280E-004	...........
	52	53,5313	-6,66257E-001	-6,66612E-001	5,58280E-004	...........
	53	54,5414	-6,66409E-001	-6,66462E-001	5,58280E-004	...........
	54	55,5514	-6,66560E-001	-6,67012E-001	6,58280E-004	...........
	55	56,5614	-6,66658E-001	-6,67062E-001	4,58280E-004	...........
	56	57,5714	-6,66753E-001	-6,67212E-001	5,58280E-004	...........
	57	58,5815	-6,66864E-001	-6,66262E-001	5,58280E-004	...........
	58	59,5915	-6,66914E-001	-6,66612E-001	5,58280E-004	...........
	59	60,6015	-6,66850E-001	-6,66812E-001	5,58280E-004	...........
	60	61,6115	-6,66738E-001	-6,66512E-001	5,58280E-004	...........
	61	62,6216	-6,66664E-001	-6,66612E-001	5,58280E-004	...........
	62	63,6316	-6,66650E-001	-6,67612E-001	5,58280E-004	...........
	63	64,6416	-6,66732E-001	-6,67612E-001	6,58280E-004	...........
	64	65,6516	-6,66937E-001	-6,67162E-001	5,58280E-004	...........
	65	66,6617	-6,67167E-001	-6,67012E-001	6,58280E-004	...........
	66	67,6717	-6,67291E-001	-6,67612E-001	6,58280E-004	...........
	67	68,6817	-6,67305E-001	-6,67012E-001	6,58280E-004	...........
	68	69,6917	-6,67282E-001	-6,67112E-001	6,58280E-004	...........
	69	70,7018	-6,67256E-001	-6,67762E-001	5,58280E-004	...........
	70	71,7118	-6,67284E-001	-6,68612E-001	6,58280E-004	...........
	71	72,7218	-6,67456E-001	-6,68162E-001	5,58280E-004	...........
	72	73,7318	-6,67753E-001	-6,68112E-001	7,58280E-004	...........
	73	74,7419	-6,68033E-001	-6,68712E-001	5,58280E-004	...........
	74	75,7519	-6,68224E-001	-6,68612E-001	6,58280E-004	...........
	75	76,7619	-6,68369E-001	-6,68812E-001	6,58280E-004	...........
	76	77,7719	-6,68517E-001	-6,69212E-001	6,58280E-004	...........
	77	78,782	-6,68685E-001	-6,69262E-001	6,58280E-004	...........
	78	79,792	-6,68847E-001	-6,67912E-001	6,58280E-004	...........
	79	80,802	-6,68908E-001	-6,68812E-001	6,58280E-004	...........
	80	81,812	-6,68843E-001	-6,69712E-001	6,58280E-004	...........
	81	82,8221	-6,68831E-001	-6,70212E-001	6,58280E-004	...........
	82	83,8321	-6,69044E-001	-6,69862E-001	5,58280E-004	...........
	83	84,8421	-6,69416E-001	-6,70212E-001	6,58280E-004	...........
	84	85,8521	-6,69737E-001	-6,68912E-001	7,58280E-004	...........
	85	86,8622	-6,69849E-001	-6,69512E-001	6,58280E-004	...........
	86	87,8722	-6,69764E-001	-6,70112E-001	6,58280E-004	...........
	87	88,8822	-6,69662E-001	-6,70262E-001	7,58280E-004	...........
	88	89,8922	-6,69689E-001	-6,69162E-001	6,58280E-004	...........
	89	90,9023	-6,69767E-001	-6,69462E-001	5,58280E-004	...........
	90	91,9123	-6,69740E-001	-6,69212E-001	5,58280E-004	...........
	91	92,9223	-6,69622E-001	-6,70412E-001	6,58280E-004	...........
	92	93,9323	-6,69574E-001	-6,70262E-001	6,58280E-004	...........
	93	94,9424	-6,69683E-001	-6,69412E-001	6,58280E-004	...........
	94	95,952	-6,69834E-001	-6,69612E-001	6,58280E-004	...........
	95	96,962	-6,69865E-001	-6,69612E-001	5,58280E-004	...........
	96	97,972	-6,69785E-001	-6,69912E-001	5,58280E-004	...........
	97	98,982	-6,69715E-001	-6,69862E-001	6,58280E-004	...........
	98	99,992	-6,69731E-001	-6,70412E-001	6,58280E-004	...........
	99	101,003	-6,69836E-001	-6,70212E-001	5,58280E-004	...........
	100	102,013	-6,69978E-001	-6,69612E-001	6,58280E-004	...........
	101	103,023	-6,70074E-001	-6,70562E-001	6,58280E-004	...........
	102	104,033	-6,70114E-001	-6,70612E-001	6,58280E-004	...........
	103	105,043	-6,70181E-001	-6,70412E-001	5,58280E-004	...........
	104	106,053	-6,70313E-001	-6,71112E-001	6,58280E-004	...........
	105	107,063	-6,70479E-001	-6,70812E-001	6,58280E-004	...........
	106	108,073	-6,70654E-001	-6,71312E-001	7,58280E-004	...........
	107	109,083	-6,70827E-001	-6,71162E-001	5,58280E-004	...........
	108	110,093	-6,70987E-001	-6,71412E-001	5,58280E-004	...........
	109	111,103	-6,71120E-001	-6,71112E-001	5,58280E-004	...........
	110	112,113	-6,71203E-001	-6,71012E-001	6,58280E-004	...........
	111	113,123	-6,71212E-001	-6,70912E-001	6,58280E-004	...........
	112	114,133	-6,71180E-001	-6,72412E-001	4,58280E-004	...........
	113	115,143	-6,71211E-001	-6,71012E-001	6,58280E-004	...........
	114	116,153	-6,71327E-001	-6,71212E-001	5,58280E-004	...........
	115	117,163	-6,71423E-001	-6,72012E-001	4,58280E-004	...........
	116	118,173	-6,71469E-001	-6,71812E-001	5,58280E-004	...........
	117	119,183	-6,71552E-001	-6,72112E-001	6,58280E-004	...........
	118	120,193	-6,71685E-001	-6,71312E-001	6,58280E-004	...........
	119	121,203	-6,71764E-001	-6,71062E-001	6,58280E-004	...........
	120	122,213	-6,71712E-001	-6,72012E-001	5,58280E-004	...........
	121	123,223	-6,71617E-001	-6,72512E-001	5,58280E-004	...........
	122	124,233	-6,71676E-001	-6,73212E-001	5,58280E-004	...........
	123	125,243	-6,71969E-001	-6,72862E-001	6,58280E-004	...........
	124	126,253	-6,72373E-001	-6,72812E-001	7,58280E-004	...........
	125	127,263	-6,72686E-001	-6,72362E-001	5,58280E-004	...........
	126	128,273	-6,72811E-001	-6,73312E-001	6,58280E-004	...........
	127	129,283	-6,72841E-001	-6,73812E-001	5,58280E-004	...........
	128	130,293	-6,72945E-001	-6,73412E-001	6,58280E-004	...........
	129	131,303	-6,73171E-001	-6,74162E-001	4,58280E-004	...........
	130	132,313	-6,73445E-001	-6,74362E-001	5,58280E-004	...........
	131	133,323	-6,73730E-001	-6,74662E-001	6,58280E-004	...........
	132	134,333	-6,74029E-001	-6,75012E-001	5,58280E-004	...........
	133	135,343	-6,74320E-001	-6,74262E-001	6,58280E-004	...........
	134	136,353	-6,74527E-001	-6,74312E-001	5,58280E-004	...........
	135	137,363	-6,74572E-001	-6,73912E-001	5,58280E-004	...........
	136	138,373	-6,74459E-001	-6,73812E-001	5,58280E-004	...........
	137	139,383	-6,74257E-001	-6,73612E-001	5,58280E-004	...........
	138	140,393	-6,74041E-001	-6,73812E-001	6,58280E-004	...........
	139	141,404	-6,73875E-001	-6,74012E-001	7,58280E-004	...........
	140	142,414	-6,73812E-001	-6,74312E-001	6,58280E-004	...........
	141	143,424	-6,73865E-001	-6,74112E-001	5,58280E-004	...........
	142	144,434	-6,73990E-001	-6,74512E-001	5,58280E-004	...........
	143	145,444	-6,74127E-001	-6,74262E-001	5,58280E-004	...........
	144	146,454	-6,74251E-001	-6,75012E-001	6,58280E-004	...........
	145	147,464	-6,74389E-001	-6,75212E-001	6,58280E-004	...........
	146	148,474	-6,74597E-001	-6,75862E-001	7,58280E-004	...........
	147	149,484	-6,74902E-001	-6,76012E-001	6,58280E-004	...........
	148	150,494	-6,75262E-001	-6,75812E-001	6,58280E-004	...........
	149	151,504	-6,75583E-001	-6,75812E-001	6,58280E-004	...........
	150	152,514	-6,75787E-001	-6,76212E-001	7,58280E-004	...........
	151	153,524	-6,75899E-001	-6,76312E-001	6,58280E-004	...........
	152	154,534	-6,76006E-001	-6,76762E-001	6,58280E-004	...........
	153	155,544	-6,76159E-001	-6,76412E-001	5,58280E-004	...........
	154	156,554	-6,76335E-001	-6,76812E-001	7,58280E-004	...........
	155	157,564	-6,76494E-001	-6,77112E-001	6,58280E-004	...........
	156	158,574	-6,76654E-001	-6,77662E-001	4,58280E-004	...........
	157	159,584	-6,76865E-001	-6,77412E-001	5,58280E-004	...........
	158	160,594	-6,77125E-001	-6,78212E-001	5,58280E-004	...........
	159	161,604	-6,77393E-001	-6,77662E-001	6,58280E-004	...........
	160	162,614	-6,77627E-001	-6,78212E-001	7,58280E-004	...........
	161	163,624	-6,77804E-001	-6,77962E-001	6,58280E-004	...........
	162	164,634	-6,77925E-001	-6,78212E-001	5,58280E-004	...........
	163	165,644	-6,78017E-001	-6,78462E-001	5,58280E-004	...........
	164	166,654	-6,78119E-001	-6,78812E-001	6,58280E-004	...........
	165	167,664	-6,78270E-001	-6,78912E-001	6,58280E-004	...........
	166	168,674	-6,78466E-001	-6,78812E-001	6,58280E-004	...........
	167	169,684	-6,78660E-001	-6,79112E-001	6,58280E-004	...........
	168	170,694	-6,78813E-001	-6,79212E-001	6,58280E-004	...........
	169	171,704	-6,78944E-001	-6,79512E-001	5,58280E-004	...........
	170	172,714	-6,79084E-001	-6,79462E-001	6,58280E-004	...........
	171	173,724	-6,79239E-001	-6,79812E-001	6,58280E-004	...........
	172	174,734	-6,79398E-001	-6,79812E-001	6,58280E-004	...........
	173	175,744	-6,79566E-001	-6,80612E-001	5,58280E-004	...........
	174	176,754	-6,79767E-001	-6,80262E-001	5,58280E-004	...........
	175	177,764	-6,79992E-001	-6,80212E-001	5,58280E-004	...........
	176	178,774	-6,80178E-001	-6,80512E-001	5,58280E-004	...........
	177	179,784	-6,80299E-001	-6,80912E-001	5,58280E-004	...........
	178	180,794	-6,80421E-001	-6,81462E-001	6,58280E-004	...........
	179	181,805	-6,80624E-001	-6,81362E-001	6,58280E-004	...........
	180	182,815	-6,80901E-001	-6,81612E-001	7,58280E-004	...........
	181	183,825	-6,81177E-001	-6,81812E-001	6,58280E-004	...........
	182	184,835	-6,81408E-001	-6,81862E-001	6,58280E-004	...........
	183	185,845	-6,81596E-001	-6,82162E-001	6,58280E-004	...........
	184	186,855	-6,81773E-001	-6,82762E-001	5,58280E-004	...........
	185	187,865	-6,81989E-001	-6,83012E-001	6,58280E-004	...........
	186	188,875	-6,82272E-001	-6,83112E-001	5,58280E-004	...........
	187	189,885	-6,82589E-001	-6,83362E-001	5,58280E-004	...........
	188	190,895	-6,82880E-001	-6,83512E-001	5,58280E-004	...........
	189	191,905	-6,83128E-001	-6,84012E-001	6,58280E-004	...........
	190	192,915	-6,83360E-001	-6,84062E-001	6,58280E-004	...........
	191	193,925	-6,83602E-001	-6,84312E-001	5,58280E-004	...........
	192	194,935	-6,83848E-001	-6,84612E-001	5,58280E-004	...........
	193	195,945	-6,84088E-001	-6,84812E-001	6,58280E-004	...........
	194	196,955	-6,84326E-001	-6,85112E-001	7,58280E-004	...........
	195	197,965	-6,84569E-001	-6,85312E-001	4,58280E-004	...........
	196	198,975	-6,84819E-001	-6,85712E-001	5,58280E-004	...........
	197	199,985	-6,85081E-001	-6,86012E-001	5,58280E-004	...........
	198	200,995	-6,85359E-001	-6,86112E-001	6,58280E-004	...........
	199	202,005	-6,85642E-001	-6,86412E-001	6,58280E-004	...........
	200	203,015	-6,85909E-001	-6,86762E-001	5,58280E-004	...........
	201	204,025	-6,86166E-001	-6,87012E-001	7,58280E-004	...........
	202	205,035	-6,86429E-001	-6,87212E-001	5,58280E-004	...........
	203	206,045	-6,86701E-001	-6,87612E-001	5,58280E-004	...........
	204	207,055	-6,86976E-001	-6,87812E-001	5,58280E-004	...........
	205	208,065	-6,87252E-001	-6,88012E-001	6,58280E-004	...........
	206	209,075	-6,87522E-001	-6,88312E-001	7,58280E-004	...........
	207	210,085	-6,87777E-001	-6,88412E-001	7,58280E-004	...........
	208	211,095	-6,88020E-001	-6,88962E-001	5,58280E-004	...........
	209	212,105	-6,88273E-001	-6,89412E-001	5,58280E-004	...........
	210	213,115	-6,88568E-001	-6,89512E-001	6,58280E-004	...........
	211	214,125	-6,88898E-001	-6,89662E-001	6,58280E-004	...........
	212	215,135	-6,89214E-001	-6,90062E-001	6,58280E-004	...........
	213	216,145	-6,89488E-001	-6,90212E-001	5,58280E-004	...........
	214	217,155	-6,89738E-001	-6,90512E-001	5,58280E-004	...........
	215	218,165	-6,89984E-001	-6,90812E-001	6,58280E-004	...........
	216	219,175	-6,90238E-001	-6,91112E-001	6,58280E-004	...........
	217	220,185	-6,90505E-001	-6,91262E-001	6,58280E-004	...........
	218	221,195	-6,90775E-001	-6,91562E-001	7,58280E-004	...........
	219	222,206	-6,91038E-001	-6,91912E-001	6,58280E-004	...........
	220	223,216	-6,91302E-001	-6,92262E-001	6,58280E-004	...........
	221	224,226	-6,91586E-001	-6,92612E-001	6,58280E-004	...........
	222	225,236	-6,91898E-001	-6,92912E-001	5,58280E-004	...........
	223	226,246	-6,92225E-001	-6,93062E-001	6,58280E-004	...........
	224	227,256	-6,92542E-001	-6,93412E-001	6,58280E-004	...........
	225	228,266	-6,92834E-001	-6,93712E-001	6,58280E-004	...........
	226	229,276	-6,93108E-001	-6,93812E-001	6,58280E-004	...........
	227	230,286	-6,93373E-001	-6,94212E-001	6,58280E-004	...........
	228	231,296	-6,93630E-001	-6,94412E-001	6,58280E-004	...........
	229	232,306	-6,93884E-001	-6,94612E-001	5,58280E-004	...........
	230	233,316	-6,94134E-001	-6,94812E-001	5,58280E-004	...........
	231	234,326	-6,94372E-001	-6,95062E-001	6,58280E-004	...........
	232	235,336	-6,94607E-001	-6,95812E-001	5,58280E-004	...........
	233	236,346	-6,94876E-001	-6,95812E-001	7,58280E-004	...........
	234	237,356	-6,95192E-001	-6,96012E-001	6,58280E-004	...........
	235	238,366	-6,95512E-001	-6,96212E-001	5,58280E-004	...........
	236	239,376	-6,95786E-001	-6,96512E-001	6,58280E-004	...........
	237	240,386	-6,96022E-001	-6,96812E-001	4,58280E-004	...........
	238	241,396	-6,96255E-001	-6,97062E-001	5,58280E-004	...........
	239	242,406	-6,96505E-001	-6,97312E-001	6,58280E-004	...........
	240	243,416	-6,96769E-001	-6,97612E-001	6,58280E-004	...........
	241	244,426	-6,97037E-001	-6,97812E-001	6,58280E-004	...........
	242	245,436	-6,97302E-001	-6,98112E-001	6,58280E-004	...........
	243	246,446	-6,97566E-001	-6,98512E-001	6,58280E-004	...........
	244	247,456	-6,97838E-001	-6,98662E-001	6,58280E-004	...........
	245	248,466	-6,98121E-001	-6,99012E-001	4,58280E-004	...........
	246	249,476	-6,98409E-001	-6,99312E-001	6,58280E-004	...........
	247	250,486	-6,98697E-001	-6,99612E-001	6,58280E-004	...........
	248	251,496	-6,98987E-001	-6,99812E-001	6,58280E-004	...........
	249	252,506	-6,99273E-001	-7,00012E-001	7,58280E-004	...........
	250	253,516	-6,99543E-001	-7,00362E-001	5,58280E-004	...........
	251	254,526	-6,99802E-001	-7,00812E-001	6,58280E-004	...........
	252	255,536	-7,00076E-001	-7,01012E-001	6,58280E-004	...........
	253	256,546	-7,00377E-001	-7,01212E-001	6,58280E-004	...........
	254	257,556	-7,00681E-001	-7,01512E-001	7,58280E-004	...........
	255	258,566	-7,00964E-001	-7,01712E-001	7,58280E-004	...........
	256	259,576	-7,01227E-001	-7,02162E-001	5,58280E-004	...........
	257	260,586	-7,01492E-001	-7,02412E-001	5,58280E-004	...........
	258	261,596	-7,01778E-001	-7,02762E-001	5,58280E-004	...........
	259	262,607	-7,02083E-001	-7,02912E-001	6,58280E-004	...........
	260	263,617	-7,02391E-001	-7,03462E-001	5,58280E-004	...........
	261	264,627	-7,02696E-001	-7,03562E-001	6,58280E-004	...........
	262	265,637	-7,03000E-001	-7,03812E-001	6,58280E-004	...........
	263	266,647	-7,03291E-001	-7,04012E-001	6,58280E-004	...........
	264	267,657	-7,03552E-001	-7,04262E-001	6,58280E-004	...........
	265	268,667	-7,03788E-001	-7,04412E-001	5,58280E-004	...........
	266	269,677	-7,04010E-001	-7,04812E-001	6,58280E-004	...........
	267	270,687	-7,04235E-001	-7,04962E-001	7,58280E-004	...........
	268	271,697	-7,04472E-001	-7,05212E-001	6,58280E-004	...........
	269	272,707	-7,04718E-001	-7,05512E-001	6,58280E-004	...........
	270	273,717	-7,04967E-001	-7,05812E-001	6,58280E-004	...........
	271	274,727	-7,05224E-001	-7,06012E-001	5,58280E-004	...........
	272	275,737	-7,05491E-001	-7,06412E-001	5,58280E-004	...........
	273	276,747	-7,05765E-001	-7,06562E-001	5,58280E-004	...........
	274	277,757	-7,06042E-001	-7,06862E-001	6,58280E-004	...........
	275	278,767	-7,06314E-001	-7,07112E-001	6,58280E-004	...........
	276	279,777	-7,06576E-001	-7,07312E-001	6,58280E-004	...........
	277	280,787	-7,06832E-001	-7,07712E-001	5,58280E-004	...........
	278	281,797	-7,07087E-001	-7,07762E-001	6,58280E-004	...........
	279	282,807	-7,07336E-001	-7,07862E-001	6,58280E-004	...........
	280	283,817	-7,07558E-001	-7,08112E-001	6,58280E-004	...........
	281	284,827	-7,07748E-001	-7,08412E-001	6,58280E-004	...........
	282	285,837	-7,07932E-001	-7,08612E-001	5,58280E-004	...........
	283	286,847	-7,08137E-001	-7,08912E-001	6,58280E-004	...........
	284	287,857	-7,08364E-001	-7,08912E-001	6,58280E-004	...........
	285	288,867	-7,08589E-001	-7,09162E-001	6,58280E-004	...........
	286	289,877	-7,08792E-001	-7,09412E-001	5,58280E-004	...........
	287	290,887	-7,08983E-001	-7,09712E-001	6,58280E-004	...........
	288	291,897	-7,09186E-001	-7,09912E-001	7,58280E-004	...........
	289	292,907	-7,09414E-001	-7,10212E-001	6,58280E-004	...........
	290	293,917	-7,09661E-001	-7,10412E-001	6,58280E-004	...........
	291	294,927	-7,09914E-001	-7,10762E-001	5,58280E-004	...........
	292	295,937	-7,10171E-001	-7,10912E-001	6,58280E-004	...........
	293	296,947	-7,10428E-001	-7,11162E-001	4,58280E-004	...........
	294	297,957	-7,10675E-001	-7,11312E-001	5,58280E-004	...........
	295	298,967	-7,10910E-001	-7,11812E-001	5,58280E-004	...........
	296	299,977	-7,11149E-001	-7,11962E-001	6,58280E-004	...........
