EXPLAIN
TAG	CORPOT
TITLE	LABEL	Mats	Test Identifier
DATE	LABEL	14.2.2023	Date
TIME	LABEL	14.33.27	Time
NOTES	NOTES	1	Notes...
	
PSTAT	PSTAT	PCI4G750-47063	Potentiostat
TIMEOUT	QUANT	3,00000E+002	Total Time (s)
SAMPLETIME	QUANT	1,00000E+000	Sample Period (s)
STABILITY	QUANT	0,00000E+000	Stability (mV/s)
AREA	QUANT	1,00000E+000	Sample Area (cm^2)
SEQUENCER	TOGGLE	TRUE	Run as Sequence
PSTATMODEL	IQUANT	37	Pstat Model
PSTATSECTION	LABEL	PCI4G750-47063	Pstat Section
PSTATSERIALNO	LABEL	47063	Pstat Serial Number
CTRLMODE	IQUANT	1	Control Mode
IESTAB	IQUANT	2	I/E Stability
CASPEED	IQUANT	2	Control Amp Speed
CONVENTION	IQUANT	1	Current Convention
ICHRANGE	IQUANT	2	Ich Range
ICHRANGEMODE	TOGGLE	T	Ich Auto Range
ICHOFFSETENABLE	TOGGLE	F	Ich Offset Enable
ICHOFFSET	QUANT	0	Ich Offset (V)
ICHFILTER	IQUANT	3	Ich Filter
VCHRANGE	IQUANT	3	Vch Range
VCHRANGEMODE	TOGGLE	T	Vch Auto Range
VCHOFFSETENABLE	TOGGLE	F	Vch Offset Enable
VCHOFFSET	QUANT	0	Vch Offset (V)
VCHFILTER	IQUANT	3	Vch Filter
ACHRANGE	IQUANT	0	Ach Range
IERANGELOWERLIMIT	IQUANT	3	I/E Range Lower Limit
IERANGEMODE	TOGGLE	F	I/E AutoRange
IERANGE	IQUANT	10	I/E Range
POSFEEDENABLE	TOGGLE	F	Positive Feedback IR Comp
POSFEEDRESISTANCE	QUANT	0	Positive Feedback Resistance (ohm)
DCCALDATE	LABEL	15.11.2022	DC Calibration Date
ACCALDATE	LABEL	15.11.2022	AC Calibration Date
FRAMEWORKVERSION	QUANT	6,33	Framework Version
CURVE	TABLE	297
	Pt	T	Vf	Vm	Ach	Over
	#	s	V vs. Ref.	V	V	bits
	0	1,01003	-6,53962E-001	-6,53962E-001	5,82800E-005	...........
	1	2,02005	-6,53935E-001	-6,52512E-001	-4,17200E-005	...........
	2	3,03008	-6,53777E-001	-6,51812E-001	-4,17200E-005	...........
	3	4,0401	-6,53444E-001	-6,54712E-001	5,82800E-005	...........
	4	5,05013	-6,53149E-001	-6,53412E-001	5,82800E-005	...........
	5	6,06015	-6,53132E-001	-6,52912E-001	-4,17200E-005	...........
	6	7,07018	-6,53256E-001	-6,52262E-001	-4,17200E-005	...........
	7	8,0802	-6,53241E-001	-6,53412E-001	-4,17200E-005	...........
	8	9,09023	-6,53079E-001	-6,52512E-001	5,82800E-005	...........
	9	10,1003	-6,52919E-001	-6,52362E-001	5,82800E-005	...........
	10	11,1103	-6,52816E-001	-6,53712E-001	-4,17200E-005	...........
	11	12,1203	-6,52782E-001	-6,52412E-001	-4,17200E-005	...........
	12	13,1303	-6,52792E-001	-6,51362E-001	5,82800E-005	...........
	13	14,1404	-6,52742E-001	-6,54512E-001	-4,17200E-005	...........
	14	15,1504	-6,52700E-001	-6,53512E-001	5,82800E-005	...........
	15	16,1604	-6,52878E-001	-6,54212E-001	-4,17200E-005	...........
	16	17,1704	-6,53270E-001	-6,54312E-001	5,82800E-005	...........
	17	18,1805	-6,53685E-001	-6,54212E-001	-4,17200E-005	...........
	18	19,1905	-6,53991E-001	-6,54062E-001	5,82800E-005	...........
	19	20,2005	-6,54129E-001	-6,53012E-001	1,58280E-004	...........
	20	21,2105	-6,54077E-001	-6,54212E-001	-4,17200E-005	...........
	21	22,2206	-6,53912E-001	-6,53312E-001	5,82800E-005	...........
	22	23,2306	-6,53766E-001	-6,54012E-001	5,82800E-005	...........
	23	24,2406	-6,53693E-001	-6,53212E-001	-1,41720E-004	...........
	24	25,2506	-6,53666E-001	-6,54162E-001	-4,17200E-005	...........
	25	26,2607	-6,53673E-001	-6,54012E-001	5,82800E-005	...........
	26	27,2707	-6,53690E-001	-6,51462E-001	5,82800E-005	...........
	27	28,2807	-6,53579E-001	-6,53062E-001	5,82800E-005	...........
	28	29,2907	-6,53269E-001	-6,52862E-001	-4,17200E-005	...........
	29	30,3008	-6,52963E-001	-6,53712E-001	5,82800E-005	...........
	30	31,3108	-6,52877E-001	-6,52812E-001	5,82800E-005	...........
	31	32,3208	-6,52992E-001	-6,54112E-001	-4,17200E-005	...........
	32	33,3308	-6,53172E-001	-6,52912E-001	5,82800E-005	...........
	33	34,3409	-6,53318E-001	-6,53462E-001	-4,17200E-005	...........
	34	35,3509	-6,53410E-001	-6,54812E-001	-4,17200E-005	...........
	35	36,3609	-6,53487E-001	-6,51412E-001	-4,17200E-005	...........
	36	37,3709	-6,53458E-001	-6,51562E-001	5,82800E-005	...........
	37	38,381	-6,53169E-001	-6,54012E-001	1,58280E-004	...........
	38	39,391	-6,52824E-001	-6,54012E-001	-4,17200E-005	...........
	39	40,401	-6,52762E-001	-6,50812E-001	-4,17200E-005	...........
	40	41,411	-6,52854E-001	-6,53212E-001	-4,17200E-005	...........
	41	42,4211	-6,52807E-001	-6,52912E-001	5,82800E-005	...........
	42	43,4311	-6,52676E-001	-6,51912E-001	-4,17200E-005	...........
	43	44,4411	-6,52581E-001	-6,52012E-001	5,82800E-005	...........
	44	45,4511	-6,52468E-001	-6,52412E-001	5,82800E-005	...........
	45	46,4612	-6,52351E-001	-6,53412E-001	5,82800E-005	...........
	46	47,4712	-6,52352E-001	-6,51812E-001	-4,17200E-005	...........
	47	48,4812	-6,52455E-001	-6,52812E-001	1,58280E-004	...........
	48	49,4912	-6,52542E-001	-6,53062E-001	-4,17200E-005	...........
	49	50,5013	-6,52577E-001	-6,51312E-001	5,82800E-005	...........
	50	51,5113	-6,52508E-001	-6,50612E-001	-4,17200E-005	...........
	51	52,5213	-6,52256E-001	-6,53512E-001	-4,17200E-005	...........
	52	53,5313	-6,52027E-001	-6,54062E-001	-4,17200E-005	...........
	53	54,5414	-6,52179E-001	-6,53312E-001	-4,17200E-005	...........
	54	55,5514	-6,52699E-001	-6,54212E-001	-4,17200E-005	...........
	55	56,5614	-6,53215E-001	-6,51712E-001	-4,17200E-005	...........
	56	57,5714	-6,53407E-001	-6,52612E-001	-4,17200E-005	...........
	57	58,5815	-6,53244E-001	-6,53712E-001	-1,41720E-004	...........
	58	59,5915	-6,52971E-001	-6,51212E-001	5,82800E-005	...........
	59	60,6015	-6,52757E-001	-6,52612E-001	5,82800E-005	...........
	60	61,6115	-6,52569E-001	-6,52662E-001	-4,17200E-005	...........
	61	62,6216	-6,52460E-001	-6,53962E-001	-1,41720E-004	...........
	62	63,6316	-6,52570E-001	-6,53212E-001	5,82800E-005	...........
	63	64,6416	-6,52855E-001	-6,52612E-001	5,82800E-005	...........
	64	65,6516	-6,53080E-001	-6,52812E-001	-4,17200E-005	...........
	65	66,6617	-6,53079E-001	-6,51812E-001	-4,17200E-005	...........
	66	67,6717	-6,52930E-001	-6,55212E-001	5,82800E-005	...........
	67	68,6817	-6,52941E-001	-6,55462E-001	1,58280E-004	...........
	68	69,6917	-6,53358E-001	-6,54212E-001	-4,17200E-005	...........
	69	70,7018	-6,54009E-001	-6,54912E-001	5,82800E-005	...........
	70	71,7118	-6,54511E-001	-6,54812E-001	-4,17200E-005	...........
	71	72,7218	-6,54710E-001	-6,53312E-001	5,82800E-005	...........
	72	73,7318	-6,54644E-001	-6,54012E-001	-4,17200E-005	...........
	73	74,7419	-6,54387E-001	-6,53562E-001	5,82800E-005	...........
	74	75,7519	-6,54081E-001	-6,53712E-001	5,82800E-005	...........
	75	76,7619	-6,53843E-001	-6,53212E-001	-4,17200E-005	...........
	76	77,7719	-6,53675E-001	-6,53312E-001	-1,41720E-004	...........
	77	78,782	-6,53521E-001	-6,52612E-001	-4,17200E-005	...........
	78	79,792	-6,53316E-001	-6,51612E-001	-4,17200E-005	...........
	79	80,802	-6,53018E-001	-6,53212E-001	5,82800E-005	...........
	80	81,812	-6,52712E-001	-6,52212E-001	-4,17200E-005	...........
	81	82,8221	-6,52509E-001	-6,51412E-001	-4,17200E-005	...........
	82	83,8321	-6,52387E-001	-6,53512E-001	5,82800E-005	...........
	83	84,8421	-6,52338E-001	-6,52912E-001	-4,17200E-005	...........
	84	85,8521	-6,52454E-001	-6,53412E-001	5,82800E-005	...........
	85	86,8622	-6,52733E-001	-6,54012E-001	5,82800E-005	...........
	86	87,8722	-6,53048E-001	-6,52212E-001	5,82800E-005	...........
	87	88,8822	-6,53245E-001	-6,53562E-001	-1,41720E-004	...........
	88	89,8922	-6,53291E-001	-6,54412E-001	-4,17200E-005	...........
	89	90,9023	-6,53359E-001	-6,54362E-001	5,82800E-005	...........
	90	91,9123	-6,53591E-001	-6,53912E-001	-4,17200E-005	...........
	91	92,9223	-6,53914E-001	-6,55762E-001	-4,17200E-005	...........
	92	93,9323	-6,54277E-001	-6,56612E-001	-4,17200E-005	...........
	93	94,9424	-6,54730E-001	-6,54012E-001	-4,17200E-005	...........
	94	95,952	-6,55125E-001	-6,54412E-001	5,82800E-005	...........
	95	96,962	-6,55177E-001	-6,53762E-001	5,82800E-005	...........
	96	97,972	-6,54840E-001	-6,52362E-001	5,82800E-005	...........
	97	98,982	-6,54290E-001	-6,53712E-001	-1,41720E-004	...........
	98	99,992	-6,53771E-001	-6,54512E-001	-4,17200E-005	...........
	99	101,003	-6,53536E-001	-6,53962E-001	5,82800E-005	...........
	100	102,013	-6,53647E-001	-6,54762E-001	-4,17200E-005	...........
	101	103,023	-6,53897E-001	-6,52662E-001	5,82800E-005	...........
	102	104,033	-6,54010E-001	-6,53312E-001	-4,17200E-005	...........
	103	105,043	-6,53862E-001	-6,53162E-001	-1,41720E-004	...........
	104	106,053	-6,53562E-001	-6,52612E-001	-4,17200E-005	...........
	105	107,063	-6,53236E-001	-6,51112E-001	-4,17200E-005	...........
	106	108,073	-6,52898E-001	-6,54212E-001	-4,17200E-005	...........
	107	109,083	-6,52643E-001	-6,52412E-001	-4,17200E-005	...........
	108	110,093	-6,52579E-001	-6,51212E-001	5,82800E-005	...........
	109	111,103	-6,52540E-001	-6,51912E-001	-4,17200E-005	...........
	110	112,113	-6,52392E-001	-6,54912E-001	-1,41720E-004	...........
	111	113,123	-6,52383E-001	-6,53012E-001	5,82800E-005	...........
	112	114,133	-6,52741E-001	-6,55562E-001	-4,17200E-005	...........
	113	115,143	-6,53354E-001	-6,54812E-001	5,82800E-005	...........
	114	116,153	-6,54012E-001	-6,55462E-001	5,82800E-005	...........
	115	117,163	-6,54577E-001	-6,55212E-001	-4,17200E-005	...........
	116	118,173	-6,54958E-001	-6,54612E-001	5,82800E-005	...........
	117	119,183	-6,55082E-001	-6,53362E-001	-4,17200E-005	...........
	118	120,193	-6,54897E-001	-6,53412E-001	-1,41720E-004	...........
	119	121,203	-6,54446E-001	-6,52612E-001	-4,17200E-005	...........
	120	122,213	-6,53921E-001	-6,54812E-001	-4,17200E-005	...........
	121	123,223	-6,53588E-001	-6,53612E-001	5,82800E-005	...........
	122	124,233	-6,53578E-001	-6,54612E-001	5,82800E-005	...........
	123	125,243	-6,53837E-001	-6,57012E-001	-4,17200E-005	...........
	124	126,253	-6,54340E-001	-6,56262E-001	-4,17200E-005	...........
	125	127,263	-6,55008E-001	-6,54212E-001	5,82800E-005	...........
	126	128,273	-6,55501E-001	-6,55212E-001	5,82800E-005	...........
	127	129,283	-6,55552E-001	-6,54512E-001	5,82800E-005	...........
	128	130,293	-6,55313E-001	-6,55812E-001	-1,41720E-004	...........
	129	131,303	-6,55106E-001	-6,54812E-001	-1,41720E-004	...........
	130	132,313	-6,55061E-001	-6,55362E-001	5,82800E-005	...........
	131	133,323	-6,55113E-001	-6,55412E-001	-4,17200E-005	...........
	132	134,333	-6,55167E-001	-6,54212E-001	5,82800E-005	...........
	133	135,343	-6,55134E-001	-6,54462E-001	5,82800E-005	...........
	134	136,353	-6,54973E-001	-6,54812E-001	5,82800E-005	...........
	135	137,363	-6,54772E-001	-6,54612E-001	5,82800E-005	...........
	136	138,373	-6,54679E-001	-6,56062E-001	5,82800E-005	...........
	137	139,383	-6,54759E-001	-6,54412E-001	-4,17200E-005	...........
	138	140,393	-6,54927E-001	-6,55012E-001	5,82800E-005	...........
	139	141,404	-6,55030E-001	-6,55212E-001	5,82800E-005	...........
	140	142,414	-6,55003E-001	-6,53012E-001	-4,17200E-005	...........
	141	143,424	-6,54826E-001	-6,54362E-001	-4,17200E-005	...........
	142	144,434	-6,54555E-001	-6,55912E-001	-4,17200E-005	...........
	143	145,444	-6,54379E-001	-6,52212E-001	-4,17200E-005	...........
	144	146,454	-6,54320E-001	-6,54812E-001	5,82800E-005	...........
	145	147,464	-6,54266E-001	-6,56162E-001	-4,17200E-005	...........
	146	148,474	-6,54295E-001	-6,52612E-001	5,82800E-005	...........
	147	149,484	-6,54386E-001	-6,53462E-001	-4,17200E-005	...........
	148	150,494	-6,54292E-001	-6,54212E-001	5,82800E-005	...........
	149	151,504	-6,54025E-001	-6,53612E-001	5,82800E-005	...........
	150	152,514	-6,53872E-001	-6,56312E-001	5,82800E-005	...........
	151	153,524	-6,54044E-001	-6,55612E-001	-4,17200E-005	...........
	152	154,534	-6,54503E-001	-6,54362E-001	-4,17200E-005	...........
	153	155,544	-6,54952E-001	-6,55162E-001	-4,17200E-005	...........
	154	156,554	-6,55102E-001	-6,53312E-001	-4,17200E-005	...........
	155	157,564	-6,54939E-001	-6,55012E-001	-1,41720E-004	...........
	156	158,574	-6,54637E-001	-6,53262E-001	-4,17200E-005	...........
	157	159,584	-6,54381E-001	-6,55612E-001	5,82800E-005	...........
	158	160,594	-6,54282E-001	-6,53912E-001	-4,17200E-005	...........
	159	161,604	-6,54305E-001	-6,53212E-001	-1,41720E-004	...........
	160	162,614	-6,54246E-001	-6,52612E-001	5,82800E-005	...........
	161	163,624	-6,53933E-001	-6,52412E-001	-4,17200E-005	...........
	162	164,634	-6,53469E-001	-6,54212E-001	5,82800E-005	...........
	163	165,644	-6,53152E-001	-6,53562E-001	-4,17200E-005	...........
	164	166,654	-6,53139E-001	-6,52812E-001	-1,41720E-004	...........
	165	167,664	-6,53274E-001	-6,53712E-001	1,58280E-004	...........
	166	168,674	-6,53345E-001	-6,52612E-001	1,58280E-004	...........
	167	169,684	-6,53310E-001	-6,53462E-001	5,82800E-005	...........
	168	170,694	-6,53239E-001	-6,53362E-001	-4,17200E-005	...........
	169	171,704	-6,53220E-001	-6,53912E-001	5,82800E-005	...........
	170	172,714	-6,53324E-001	-6,54662E-001	-4,17200E-005	...........
	171	173,724	-6,53520E-001	-6,51612E-001	-1,41720E-004	...........
	172	174,734	-6,53571E-001	-6,51312E-001	-4,17200E-005	...........
	173	175,744	-6,53261E-001	-6,53562E-001	5,82800E-005	...........
	174	176,754	-6,52809E-001	-6,53562E-001	5,82800E-005	...........
	175	177,764	-6,52690E-001	-6,55412E-001	5,82800E-005	...........
	176	178,774	-6,53085E-001	-6,54912E-001	5,82800E-005	...........
	177	179,784	-6,53760E-001	-6,54012E-001	-4,17200E-005	...........
	178	180,794	-6,54327E-001	-6,54862E-001	5,82800E-005	...........
	179	181,805	-6,54590E-001	-6,54662E-001	-4,17200E-005	...........
	180	182,815	-6,54613E-001	-6,52812E-001	-4,17200E-005	...........
	181	183,825	-6,54521E-001	-6,57212E-001	-4,17200E-005	...........
	182	184,835	-6,54526E-001	-6,55612E-001	5,82800E-005	...........
	183	185,845	-6,54819E-001	-6,55212E-001	5,82800E-005	...........
	184	186,855	-6,55283E-001	-6,57712E-001	-4,17200E-005	...........
	185	187,865	-6,55709E-001	-6,55312E-001	-1,41720E-004	...........
	186	188,875	-6,56034E-001	-6,56712E-001	-4,17200E-005	...........
	187	189,885	-6,56222E-001	-6,56012E-001	-4,17200E-005	...........
	188	190,895	-6,56275E-001	-6,56312E-001	5,82800E-005	...........
	189	191,905	-6,56273E-001	-6,56562E-001	-4,17200E-005	...........
	190	192,915	-6,56293E-001	-6,56812E-001	-4,17200E-005	...........
	191	193,925	-6,56366E-001	-6,56012E-001	-4,17200E-005	...........
	192	194,935	-6,56435E-001	-6,56262E-001	5,82800E-005	...........
	193	195,945	-6,56421E-001	-6,56012E-001	-1,41720E-004	...........
	194	196,955	-6,56337E-001	-6,56762E-001	-4,17200E-005	...........
	195	197,965	-6,56269E-001	-6,55612E-001	-4,17200E-005	...........
	196	198,975	-6,56226E-001	-6,55812E-001	5,82800E-005	...........
	197	199,985	-6,56135E-001	-6,55562E-001	-4,17200E-005	...........
	198	200,995	-6,55959E-001	-6,54712E-001	5,82800E-005	...........
	199	202,005	-6,55735E-001	-6,56412E-001	-4,17200E-005	...........
	200	203,015	-6,55556E-001	-6,54912E-001	-1,41720E-004	...........
	201	204,025	-6,55462E-001	-6,54512E-001	-1,41720E-004	...........
	202	205,035	-6,55351E-001	-6,54912E-001	5,82800E-005	...........
	203	206,045	-6,55156E-001	-6,55012E-001	-4,17200E-005	...........
	204	207,055	-6,54984E-001	-6,55262E-001	-4,17200E-005	...........
	205	208,065	-6,54921E-001	-6,54212E-001	-4,17200E-005	...........
	206	209,075	-6,54880E-001	-6,53662E-001	-1,41720E-004	...........
	207	210,085	-6,54715E-001	-6,54212E-001	-4,17200E-005	...........
	208	211,095	-6,54433E-001	-6,53812E-001	-4,17200E-005	...........
	209	212,105	-6,54178E-001	-6,54212E-001	-4,17200E-005	...........
	210	213,115	-6,54064E-001	-6,55212E-001	-4,17200E-005	...........
	211	214,125	-6,54132E-001	-6,54212E-001	-4,17200E-005	...........
	212	215,135	-6,54340E-001	-6,55812E-001	5,82800E-005	...........
	213	216,145	-6,54616E-001	-6,55562E-001	5,82800E-005	...........
	214	217,155	-6,54925E-001	-6,55262E-001	-4,17200E-005	...........
	215	218,165	-6,55180E-001	-6,54212E-001	5,82800E-005	...........
	216	219,175	-6,55212E-001	-6,53612E-001	-4,17200E-005	...........
	217	220,185	-6,54955E-001	-6,54462E-001	-4,17200E-005	...........
	218	221,195	-6,54547E-001	-6,52962E-001	5,82800E-005	...........
	219	222,206	-6,54180E-001	-6,54762E-001	5,82800E-005	...........
	220	223,216	-6,53973E-001	-6,54312E-001	5,82800E-005	...........
	221	224,226	-6,53996E-001	-6,55512E-001	5,82800E-005	...........
	222	225,236	-6,54248E-001	-6,55312E-001	-4,17200E-005	...........
	223	226,246	-6,54567E-001	-6,52212E-001	5,82800E-005	...........
	224	227,256	-6,54654E-001	-6,54212E-001	-4,17200E-005	...........
	225	228,266	-6,54398E-001	-6,54212E-001	1,58280E-004	...........
	226	229,276	-6,54060E-001	-6,53412E-001	-4,17200E-005	...........
	227	230,286	-6,53898E-001	-6,55112E-001	-1,41720E-004	...........
	228	231,296	-6,53893E-001	-6,51912E-001	5,82800E-005	...........
	229	232,306	-6,53869E-001	-6,54012E-001	5,82800E-005	...........
	230	233,316	-6,53668E-001	-6,50812E-001	-4,17200E-005	...........
	231	234,326	-6,53241E-001	-6,51262E-001	5,82800E-005	...........
	232	235,336	-6,52647E-001	-6,52412E-001	-4,17200E-005	...........
	233	236,346	-6,52133E-001	-6,53212E-001	-4,17200E-005	...........
	234	237,356	-6,52005E-001	-6,53312E-001	-4,17200E-005	...........
	235	238,366	-6,52282E-001	-6,52962E-001	5,82800E-005	...........
	236	239,376	-6,52697E-001	-6,53612E-001	5,82800E-005	...........
	237	240,386	-6,53038E-001	-6,53862E-001	5,82800E-005	...........
	238	241,396	-6,53281E-001	-6,53212E-001	5,82800E-005	...........
	239	242,406	-6,53435E-001	-6,53062E-001	-4,17200E-005	...........
	240	243,416	-6,53468E-001	-6,53712E-001	5,82800E-005	...........
	241	244,426	-6,53457E-001	-6,55062E-001	-4,17200E-005	...........
	242	245,436	-6,53555E-001	-6,52812E-001	-1,41720E-004	...........
	243	246,446	-6,53733E-001	-6,54012E-001	5,82800E-005	...........
	244	247,456	-6,53860E-001	-6,55612E-001	-4,17200E-005	...........
	245	248,466	-6,53989E-001	-6,53712E-001	5,82800E-005	...........
	246	249,476	-6,54180E-001	-6,53912E-001	-4,17200E-005	...........
	247	250,486	-6,54322E-001	-6,55812E-001	5,82800E-005	...........
	248	251,496	-6,54365E-001	-6,51962E-001	-4,17200E-005	...........
	249	252,506	-6,54275E-001	-6,52812E-001	-4,17200E-005	...........
	250	253,516	-6,53915E-001	-6,51912E-001	5,82800E-005	...........
	251	254,526	-6,53339E-001	-6,52912E-001	-4,17200E-005	...........
	252	255,536	-6,52800E-001	-6,51062E-001	5,82800E-005	...........
	253	256,546	-6,52452E-001	-6,54212E-001	-4,17200E-005	...........
	254	257,556	-6,52375E-001	-6,53712E-001	-4,17200E-005	...........
	255	258,566	-6,52614E-001	-6,53062E-001	-4,17200E-005	...........
	256	259,576	-6,53057E-001	-6,56112E-001	-4,17200E-005	...........
	257	260,586	-6,53567E-001	-6,54212E-001	-4,17200E-005	...........
	258	261,596	-6,54068E-001	-6,53812E-001	-4,17200E-005	...........
	259	262,607	-6,54396E-001	-6,54812E-001	5,82800E-005	...........
	260	263,617	-6,54489E-001	-6,55012E-001	-4,17200E-005	...........
	261	264,627	-6,54523E-001	-6,54912E-001	-4,17200E-005	...........
	262	265,637	-6,54633E-001	-6,54812E-001	-4,17200E-005	...........
	263	266,647	-6,54768E-001	-6,54912E-001	5,82800E-005	...........
	264	267,657	-6,54856E-001	-6,55062E-001	-4,17200E-005	...........
	265	268,667	-6,54848E-001	-6,52012E-001	-4,17200E-005	...........
	266	269,677	-6,54627E-001	-6,53912E-001	5,82800E-005	...........
	267	270,687	-6,54223E-001	-6,55612E-001	5,82800E-005	...........
	268	271,697	-6,53986E-001	-6,54862E-001	-4,17200E-005	...........
	269	272,707	-6,54173E-001	-6,55912E-001	-1,41720E-004	...........
	270	273,717	-6,54612E-001	-6,54212E-001	5,82800E-005	...........
	271	274,727	-6,54953E-001	-6,54612E-001	5,82800E-005	...........
	272	275,737	-6,55015E-001	-6,54712E-001	5,82800E-005	...........
	273	276,747	-6,54864E-001	-6,53712E-001	-4,17200E-005	...........
	274	277,757	-6,54668E-001	-6,55812E-001	5,82800E-005	...........
	275	278,767	-6,54567E-001	-6,54212E-001	-1,41720E-004	...........
	276	279,777	-6,54561E-001	-6,52712E-001	-4,17200E-005	...........
	277	280,787	-6,54431E-001	-6,52612E-001	-4,17200E-005	...........
	278	281,797	-6,54024E-001	-6,53662E-001	-4,17200E-005	...........
	279	282,807	-6,53593E-001	-6,56012E-001	-4,17200E-005	...........
	280	283,817	-6,53575E-001	-6,55412E-001	-4,17200E-005	...........
	281	284,827	-6,54053E-001	-6,54712E-001	-4,17200E-005	...........
	282	285,837	-6,54642E-001	-6,54462E-001	-4,17200E-005	...........
	283	286,847	-6,54936E-001	-6,54462E-001	-4,17200E-005	...........
	284	287,857	-6,54889E-001	-6,54212E-001	-4,17200E-005	...........
	285	288,867	-6,54669E-001	-6,53412E-001	5,82800E-005	...........
	286	289,877	-6,54370E-001	-6,52862E-001	-4,17200E-005	...........
	287	290,887	-6,54002E-001	-6,53462E-001	-4,17200E-005	...........
	288	291,897	-6,53613E-001	-6,52212E-001	5,82800E-005	...........
	289	292,907	-6,53303E-001	-6,54612E-001	1,58280E-004	...........
	290	293,917	-6,53219E-001	-6,55312E-001	5,82800E-005	...........
	291	294,927	-6,53459E-001	-6,53012E-001	5,82800E-005	...........
	292	295,937	-6,53839E-001	-6,54012E-001	-1,41720E-004	...........
	293	296,947	-6,54049E-001	-6,54612E-001	-4,17200E-005	...........
	294	297,957	-6,54101E-001	-6,54912E-001	5,82800E-005	...........
	295	298,967	-6,54224E-001	-6,55612E-001	-4,17200E-005	...........
	296	299,977	-6,54511E-001	-6,55162E-001	5,82800E-005	...........
