EXPLAIN
TAG	CORPOT
TITLE	LABEL	Mats	Test Identifier
DATE	LABEL	15.2.2023	Date
TIME	LABEL	12.26.51	Time
NOTES	NOTES	1	Notes...
	
PSTAT	PSTAT	PCI4G750-47063	Potentiostat
TIMEOUT	QUANT	3,00000E+002	Total Time (s)
SAMPLETIME	QUANT	1,00000E+000	Sample Period (s)
STABILITY	QUANT	0,00000E+000	Stability (mV/s)
AREA	QUANT	1,00000E+000	Sample Area (cm^2)
SEQUENCER	TOGGLE	TRUE	Run as Sequence
PSTATMODEL	IQUANT	37	Pstat Model
PSTATSECTION	LABEL	PCI4G750-47063	Pstat Section
PSTATSERIALNO	LABEL	47063	Pstat Serial Number
CTRLMODE	IQUANT	1	Control Mode
IESTAB	IQUANT	2	I/E Stability
CASPEED	IQUANT	2	Control Amp Speed
CONVENTION	IQUANT	1	Current Convention
ICHRANGE	IQUANT	2	Ich Range
ICHRANGEMODE	TOGGLE	T	Ich Auto Range
ICHOFFSETENABLE	TOGGLE	F	Ich Offset Enable
ICHOFFSET	QUANT	0	Ich Offset (V)
ICHFILTER	IQUANT	3	Ich Filter
VCHRANGE	IQUANT	3	Vch Range
VCHRANGEMODE	TOGGLE	T	Vch Auto Range
VCHOFFSETENABLE	TOGGLE	F	Vch Offset Enable
VCHOFFSET	QUANT	0	Vch Offset (V)
VCHFILTER	IQUANT	3	Vch Filter
ACHRANGE	IQUANT	0	Ach Range
IERANGELOWERLIMIT	IQUANT	3	I/E Range Lower Limit
IERANGEMODE	TOGGLE	F	I/E AutoRange
IERANGE	IQUANT	10	I/E Range
POSFEEDENABLE	TOGGLE	F	Positive Feedback IR Comp
POSFEEDRESISTANCE	QUANT	0	Positive Feedback Resistance (ohm)
DCCALDATE	LABEL	15.11.2022	DC Calibration Date
ACCALDATE	LABEL	15.11.2022	AC Calibration Date
FRAMEWORKVERSION	QUANT	6,33	Framework Version
CURVE	TABLE	297
	Pt	T	Vf	Vm	Ach	Over
	#	s	V vs. Ref.	V	V	bits
	0	1,01003	-7,18112E-001	-7,18112E-001	1,58280E-004	...........
	1	2,02005	-7,18140E-001	-7,19562E-001	5,82800E-005	...........
	2	3,03008	-7,18273E-001	-7,19012E-001	1,58280E-004	...........
	3	4,0401	-7,18527E-001	-7,18412E-001	1,58280E-004	...........
	4	5,05013	-7,18756E-001	-7,18762E-001	1,58280E-004	...........
	5	6,06015	-7,18825E-001	-7,18512E-001	1,58280E-004	...........
	6	7,07018	-7,18758E-001	-7,18162E-001	1,58280E-004	...........
	7	8,0802	-7,18624E-001	-7,18012E-001	1,58280E-004	...........
	8	9,09023	-7,18436E-001	-7,17112E-001	5,82800E-005	...........
	9	10,1003	-7,18170E-001	-7,17312E-001	5,82800E-005	...........
	10	11,1103	-7,17857E-001	-7,17712E-001	1,58280E-004	...........
	11	12,1203	-7,17615E-001	-7,18112E-001	1,58280E-004	...........
	12	13,1303	-7,17562E-001	-7,18012E-001	5,82800E-005	...........
	13	14,1404	-7,17686E-001	-7,18412E-001	-4,17200E-005	...........
	14	15,1504	-7,17880E-001	-7,17812E-001	2,58280E-004	...........
	15	16,1604	-7,18015E-001	-7,17312E-001	5,82800E-005	...........
	16	17,1704	-7,17978E-001	-7,16412E-001	5,82800E-005	...........
	17	18,1805	-7,17743E-001	-7,18012E-001	5,82800E-005	...........
	18	19,1905	-7,17480E-001	-7,18212E-001	1,58280E-004	...........
	19	20,2005	-7,17401E-001	-7,16612E-001	2,58280E-004	...........
	20	21,2105	-7,17443E-001	-7,16662E-001	5,82800E-005	...........
	21	22,2206	-7,17364E-001	-7,16312E-001	1,58280E-004	...........
	22	23,2306	-7,17095E-001	-7,16362E-001	1,58280E-004	...........
	23	24,2406	-7,16789E-001	-7,17212E-001	1,58280E-004	...........
	24	25,2506	-7,16614E-001	-7,16412E-001	5,82800E-005	...........
	25	26,2607	-7,16602E-001	-7,16912E-001	5,82800E-005	...........
	26	27,2707	-7,16660E-001	-7,16562E-001	1,58280E-004	...........
	27	28,2807	-7,16708E-001	-7,17062E-001	1,58280E-004	...........
	28	29,2907	-7,16741E-001	-7,16612E-001	5,82800E-005	...........
	29	30,3008	-7,16784E-001	-7,17612E-001	5,82800E-005	...........
	30	31,3108	-7,16844E-001	-7,15812E-001	5,82800E-005	...........
	31	32,3208	-7,16845E-001	-7,15862E-001	1,58280E-004	...........
	32	33,3308	-7,16647E-001	-7,14212E-001	5,82800E-005	...........
	33	34,3409	-7,16203E-001	-7,15312E-001	5,82800E-005	...........
	34	35,3509	-7,15687E-001	-7,16412E-001	5,82800E-005	...........
	35	36,3609	-7,15396E-001	-7,15612E-001	1,58280E-004	...........
	36	37,3709	-7,15432E-001	-7,15712E-001	5,82800E-005	...........
	37	38,381	-7,15612E-001	-7,16162E-001	1,58280E-004	...........
	38	39,391	-7,15747E-001	-7,15012E-001	5,82800E-005	...........
	39	40,401	-7,15763E-001	-7,15162E-001	5,82800E-005	...........
	40	41,411	-7,15652E-001	-7,15812E-001	1,58280E-004	...........
	41	42,4211	-7,15498E-001	-7,14812E-001	1,58280E-004	...........
	42	43,4311	-7,15373E-001	-7,14712E-001	1,58280E-004	...........
	43	44,4411	-7,15228E-001	-7,14412E-001	1,58280E-004	...........
	44	45,4511	-7,15026E-001	-7,15012E-001	1,58280E-004	...........
	45	46,4612	-7,14823E-001	-7,13812E-001	1,58280E-004	...........
	46	47,4712	-7,14672E-001	-7,15412E-001	1,58280E-004	...........
	47	48,4812	-7,14594E-001	-7,14212E-001	5,82800E-005	...........
	48	49,4912	-7,14611E-001	-7,15812E-001	1,58280E-004	...........
	49	50,5013	-7,14735E-001	-7,15412E-001	5,82800E-005	...........
	50	51,5113	-7,14927E-001	-7,14012E-001	1,58280E-004	...........
	51	52,5213	-7,15051E-001	-7,15312E-001	-4,17200E-005	...........
	52	53,5313	-7,15013E-001	-7,14212E-001	5,82800E-005	...........
	53	54,5414	-7,14871E-001	-7,14362E-001	1,58280E-004	...........
	54	55,5514	-7,14688E-001	-7,13612E-001	1,58280E-004	...........
	55	56,5614	-7,14480E-001	-7,15012E-001	5,82800E-005	...........
	56	57,5714	-7,14319E-001	-7,13962E-001	-4,17200E-005	...........
	57	58,5815	-7,14258E-001	-7,13862E-001	5,82800E-005	...........
	58	59,5915	-7,14218E-001	-7,13712E-001	1,58280E-004	...........
	59	60,6015	-7,14141E-001	-7,15262E-001	5,82800E-005	...........
	60	61,6115	-7,14127E-001	-7,14562E-001	1,58280E-004	...........
	61	62,6216	-7,14256E-001	-7,14012E-001	1,58280E-004	...........
	62	63,6316	-7,14406E-001	-7,14362E-001	5,82800E-005	...........
	63	64,6416	-7,14440E-001	-7,14412E-001	5,82800E-005	...........
	64	65,6516	-7,14392E-001	-7,14262E-001	5,82800E-005	...........
	65	66,6617	-7,14336E-001	-7,13712E-001	5,82800E-005	...........
	66	67,6717	-7,14253E-001	-7,13612E-001	1,58280E-004	...........
	67	68,6817	-7,14092E-001	-7,13212E-001	1,58280E-004	...........
	68	69,6917	-7,13886E-001	-7,14612E-001	1,58280E-004	...........
	69	70,7018	-7,13763E-001	-7,14012E-001	-4,17200E-005	...........
	70	71,7118	-7,13795E-001	-7,13412E-001	1,58280E-004	...........
	71	72,7218	-7,13851E-001	-7,12662E-001	5,82800E-005	...........
	72	73,7318	-7,13752E-001	-7,13612E-001	5,82800E-005	...........
	73	74,7419	-7,13526E-001	-7,13112E-001	1,58280E-004	...........
	74	75,7519	-7,13338E-001	-7,13412E-001	1,58280E-004	...........
	75	76,7619	-7,13259E-001	-7,13012E-001	5,82800E-005	...........
	76	77,7719	-7,13237E-001	-7,13212E-001	2,58280E-004	...........
	77	78,782	-7,13194E-001	-7,12012E-001	1,58280E-004	...........
	78	79,792	-7,13076E-001	-7,13162E-001	-4,17200E-005	...........
	79	80,802	-7,12924E-001	-7,13412E-001	1,58280E-004	...........
	80	81,812	-7,12864E-001	-7,12812E-001	2,58280E-004	...........
	81	82,8221	-7,12931E-001	-7,13412E-001	5,82800E-005	...........
	82	83,8321	-7,13014E-001	-7,11862E-001	1,58280E-004	...........
	83	84,8421	-7,12985E-001	-7,12562E-001	1,58280E-004	...........
	84	85,8521	-7,12817E-001	-7,12412E-001	2,58280E-004	...........
	85	86,8622	-7,12602E-001	-7,12012E-001	1,58280E-004	...........
	86	87,8722	-7,12422E-001	-7,11812E-001	5,82800E-005	...........
	87	88,8822	-7,12258E-001	-7,11812E-001	5,82800E-005	...........
	88	89,8922	-7,12087E-001	-7,11612E-001	3,58280E-004	...........
	89	90,9023	-7,11928E-001	-7,11812E-001	1,58280E-004	...........
	90	91,9123	-7,11817E-001	-7,12012E-001	5,82800E-005	...........
	91	92,9223	-7,11808E-001	-7,13212E-001	1,58280E-004	...........
	92	93,9323	-7,11949E-001	-7,12012E-001	5,82800E-005	...........
	93	94,9424	-7,12179E-001	-7,12412E-001	1,58280E-004	...........
	94	95,952	-7,12335E-001	-7,11612E-001	1,58280E-004	...........
	95	96,962	-7,12327E-001	-7,12412E-001	1,58280E-004	...........
	96	97,972	-7,12210E-001	-7,11312E-001	5,82800E-005	...........
	97	98,982	-7,12054E-001	-7,11412E-001	5,82800E-005	...........
	98	99,992	-7,11883E-001	-7,12262E-001	5,82800E-005	...........
	99	101,003	-7,11784E-001	-7,13062E-001	1,58280E-004	...........
	100	102,013	-7,11864E-001	-7,11312E-001	1,58280E-004	...........
	101	103,023	-7,12008E-001	-7,10612E-001	1,58280E-004	...........
	102	104,033	-7,11939E-001	-7,10662E-001	1,58280E-004	...........
	103	105,043	-7,11619E-001	-7,12512E-001	-4,17200E-005	...........
	104	106,053	-7,11332E-001	-7,10712E-001	5,82800E-005	...........
	105	107,063	-7,11277E-001	-7,12212E-001	5,82800E-005	...........
	106	108,073	-7,11389E-001	-7,11912E-001	1,58280E-004	...........
	107	109,083	-7,11572E-001	-7,12512E-001	1,58280E-004	...........
	108	110,093	-7,11812E-001	-7,12812E-001	1,58280E-004	...........
	109	111,103	-7,12101E-001	-7,13012E-001	1,58280E-004	...........
	110	112,113	-7,12400E-001	-7,12612E-001	1,58280E-004	...........
	111	113,123	-7,12603E-001	-7,11012E-001	5,82800E-005	...........
	112	114,133	-7,12560E-001	-7,11612E-001	1,58280E-004	...........
	113	115,143	-7,12253E-001	-7,11312E-001	5,82800E-005	...........
	114	116,153	-7,11855E-001	-7,11062E-001	5,82800E-005	...........
	115	117,163	-7,11526E-001	-7,10812E-001	5,82800E-005	...........
	116	118,173	-7,11290E-001	-7,11262E-001	1,58280E-004	...........
	117	119,183	-7,11147E-001	-7,11612E-001	1,58280E-004	...........
	118	120,193	-7,11104E-001	-7,09962E-001	1,58280E-004	...........
	119	121,203	-7,11060E-001	-7,10212E-001	5,82800E-005	...........
	120	122,213	-7,10881E-001	-7,10212E-001	5,82800E-005	...........
	121	123,223	-7,10593E-001	-7,09812E-001	5,82800E-005	...........
	122	124,233	-7,10338E-001	-7,10912E-001	1,58280E-004	...........
	123	125,243	-7,10240E-001	-7,11212E-001	5,82800E-005	...........
	124	126,253	-7,10373E-001	-7,11812E-001	1,58280E-004	...........
	125	127,263	-7,10678E-001	-7,09962E-001	5,82800E-005	...........
	126	128,273	-7,10938E-001	-7,11262E-001	1,58280E-004	...........
	127	129,283	-7,10955E-001	-7,08112E-001	5,82800E-005	...........
	128	130,293	-7,10566E-001	-7,04562E-001	5,82800E-005	...........
	129	131,303	-7,09588E-001	-7,05912E-001	1,58280E-004	...........
	130	132,313	-7,08158E-001	-7,06112E-001	-4,17200E-005	...........
	131	133,323	-7,06858E-001	-7,06012E-001	5,82800E-005	...........
	132	134,333	-7,06148E-001	-7,07012E-001	5,82800E-005	...........
	133	135,343	-7,06021E-001	-7,06812E-001	1,58280E-004	...........
	134	136,353	-7,06223E-001	-7,06462E-001	5,82800E-005	...........
	135	137,363	-7,06488E-001	-7,07212E-001	5,82800E-005	...........
	136	138,373	-7,06689E-001	-7,07312E-001	5,82800E-005	...........
	137	139,383	-7,06867E-001	-7,07812E-001	5,82800E-005	...........
	138	140,393	-7,07093E-001	-7,07962E-001	1,58280E-004	...........
	139	141,404	-7,07359E-001	-7,07562E-001	5,82800E-005	...........
	140	142,414	-7,07591E-001	-7,07962E-001	5,82800E-005	...........
	141	143,424	-7,07730E-001	-7,07712E-001	5,82800E-005	...........
	142	144,434	-7,07774E-001	-7,07112E-001	1,58280E-004	...........
	143	145,444	-7,07735E-001	-7,07912E-001	5,82800E-005	...........
	144	146,454	-7,07643E-001	-7,07012E-001	1,58280E-004	...........
	145	147,464	-7,07551E-001	-7,07812E-001	5,82800E-005	...........
	146	148,474	-7,07500E-001	-7,07762E-001	1,58280E-004	...........
	147	149,484	-7,07520E-001	-7,07862E-001	-4,17200E-005	...........
	148	150,494	-7,07610E-001	-7,07912E-001	5,82800E-005	...........
	149	151,504	-7,07734E-001	-7,08412E-001	5,82800E-005	...........
	150	152,514	-7,07868E-001	-7,07912E-001	1,58280E-004	...........
	151	153,524	-7,07984E-001	-7,07712E-001	1,58280E-004	...........
	152	154,534	-7,08015E-001	-7,07412E-001	2,58280E-004	...........
	153	155,544	-7,07911E-001	-7,06812E-001	1,58280E-004	...........
	154	156,554	-7,07698E-001	-7,07712E-001	-4,17200E-005	...........
	155	157,564	-7,07479E-001	-7,07312E-001	1,58280E-004	...........
	156	158,574	-7,07353E-001	-7,07012E-001	1,58280E-004	...........
	157	159,584	-7,07292E-001	-7,06562E-001	5,82800E-005	...........
	158	160,594	-7,07183E-001	-7,06512E-001	1,58280E-004	...........
	159	161,604	-7,06977E-001	-7,05862E-001	1,58280E-004	...........
	160	162,614	-7,06710E-001	-7,06412E-001	2,58280E-004	...........
	161	163,624	-7,06458E-001	-7,06162E-001	1,58280E-004	...........
	162	164,634	-7,06287E-001	-7,05912E-001	5,82800E-005	...........
	163	165,644	-7,06211E-001	-7,07212E-001	1,58280E-004	...........
	164	166,654	-7,06257E-001	-7,07262E-001	5,82800E-005	...........
	165	167,664	-7,06487E-001	-7,08412E-001	1,58280E-004	...........
	166	168,674	-7,06884E-001	-7,07012E-001	5,82800E-005	...........
	167	169,684	-7,07273E-001	-7,07212E-001	1,58280E-004	...........
	168	170,694	-7,07460E-001	-7,07112E-001	1,58280E-004	...........
	169	171,704	-7,07416E-001	-7,06712E-001	5,82800E-005	...........
	170	172,714	-7,07262E-001	-7,07412E-001	1,58280E-004	...........
	171	173,724	-7,07131E-001	-7,07212E-001	1,58280E-004	...........
	172	174,734	-7,07068E-001	-7,05712E-001	1,58280E-004	...........
	173	175,744	-7,06979E-001	-7,06712E-001	5,82800E-005	...........
	174	176,754	-7,06807E-001	-7,07212E-001	1,58280E-004	...........
	175	177,764	-7,06673E-001	-7,06562E-001	5,82800E-005	...........
	176	178,774	-7,06653E-001	-7,05812E-001	1,58280E-004	...........
	177	179,784	-7,06621E-001	-7,06212E-001	1,58280E-004	...........
	178	180,794	-7,06476E-001	-7,06012E-001	1,58280E-004	...........
	179	181,805	-7,06282E-001	-7,05862E-001	5,82800E-005	...........
	180	182,815	-7,06117E-001	-7,05612E-001	5,82800E-005	...........
	181	183,825	-7,06005E-001	-7,07012E-001	-4,17200E-005	...........
	182	184,835	-7,05986E-001	-7,05712E-001	1,58280E-004	...........
	183	185,845	-7,06049E-001	-7,05612E-001	5,82800E-005	...........
	184	186,855	-7,06081E-001	-7,06412E-001	1,58280E-004	...........
	185	187,865	-7,06056E-001	-7,06512E-001	1,58280E-004	...........
	186	188,875	-7,06077E-001	-7,06112E-001	1,58280E-004	...........
	187	189,885	-7,06182E-001	-7,07212E-001	1,58280E-004	...........
	188	190,895	-7,06340E-001	-7,06612E-001	5,82800E-005	...........
	189	191,905	-7,06517E-001	-7,06762E-001	1,58280E-004	...........
	190	192,915	-7,06674E-001	-7,07312E-001	1,58280E-004	...........
	191	193,925	-7,06774E-001	-7,05712E-001	1,58280E-004	...........
	192	194,935	-7,06765E-001	-7,06012E-001	1,58280E-004	...........
	193	195,945	-7,06607E-001	-7,06462E-001	1,58280E-004	...........
	194	196,955	-7,06370E-001	-7,05162E-001	2,58280E-004	...........
	195	197,965	-7,06146E-001	-7,05912E-001	5,82800E-005	...........
	196	198,975	-7,05949E-001	-7,05612E-001	5,82800E-005	...........
	197	199,985	-7,05793E-001	-7,05612E-001	1,58280E-004	...........
	198	200,995	-7,05709E-001	-7,06062E-001	1,58280E-004	...........
	199	202,005	-7,05700E-001	-7,05712E-001	5,82800E-005	...........
	200	203,015	-7,05748E-001	-7,06162E-001	5,82800E-005	...........
	201	204,025	-7,05810E-001	-7,05212E-001	1,58280E-004	...........
	202	205,035	-7,05813E-001	-7,05162E-001	2,58280E-004	...........
	203	206,045	-7,05705E-001	-7,05412E-001	5,82800E-005	...........
	204	207,055	-7,05536E-001	-7,05612E-001	5,82800E-005	...........
	205	208,065	-7,05430E-001	-7,05712E-001	5,82800E-005	...........
	206	209,075	-7,05436E-001	-7,05412E-001	1,58280E-004	...........
	207	210,085	-7,05505E-001	-7,05962E-001	5,82800E-005	...........
	208	211,095	-7,05580E-001	-7,05612E-001	5,82800E-005	...........
	209	212,105	-7,05648E-001	-7,05812E-001	5,82800E-005	...........
	210	213,115	-7,05714E-001	-7,06412E-001	1,58280E-004	...........
	211	214,125	-7,05805E-001	-7,06012E-001	1,58280E-004	...........
	212	215,135	-7,05898E-001	-7,04412E-001	1,58280E-004	...........
	213	216,145	-7,05838E-001	-7,04312E-001	5,82800E-005	...........
	214	217,155	-7,05523E-001	-7,04912E-001	1,58280E-004	...........
	215	218,165	-7,05105E-001	-7,04962E-001	5,82800E-005	...........
	216	219,175	-7,04838E-001	-7,05112E-001	5,82800E-005	...........
	217	220,185	-7,04805E-001	-7,05412E-001	1,58280E-004	...........
	218	221,195	-7,04909E-001	-7,04412E-001	5,82800E-005	...........
	219	222,206	-7,05006E-001	-7,05412E-001	1,58280E-004	...........
	220	223,216	-7,05036E-001	-7,05162E-001	1,58280E-004	...........
	221	224,226	-7,05049E-001	-7,04912E-001	1,58280E-004	...........
	222	225,236	-7,05047E-001	-7,03812E-001	5,82800E-005	...........
	223	226,246	-7,04958E-001	-7,05412E-001	1,58280E-004	...........
	224	227,256	-7,04811E-001	-7,04612E-001	1,58280E-004	...........
	225	228,266	-7,04744E-001	-7,05462E-001	5,82800E-005	...........
	226	229,276	-7,04798E-001	-7,04412E-001	5,82800E-005	...........
	227	230,286	-7,04864E-001	-7,04162E-001	5,82800E-005	...........
	228	231,296	-7,04828E-001	-7,05112E-001	5,82800E-005	...........
	229	232,306	-7,04722E-001	-7,04612E-001	5,82800E-005	...........
	230	233,316	-7,04653E-001	-7,04112E-001	1,58280E-004	...........
	231	234,326	-7,04601E-001	-7,04012E-001	1,58280E-004	...........
	232	235,336	-7,04498E-001	-7,04812E-001	1,58280E-004	...........
	233	236,346	-7,04399E-001	-7,04762E-001	5,82800E-005	...........
	234	237,356	-7,04405E-001	-7,04412E-001	5,82800E-005	...........
	235	238,366	-7,04486E-001	-7,04412E-001	5,82800E-005	...........
	236	239,376	-7,04528E-001	-7,04012E-001	1,58280E-004	...........
	237	240,386	-7,04481E-001	-7,04612E-001	1,58280E-004	...........
	238	241,396	-7,04397E-001	-7,04212E-001	5,82800E-005	...........
	239	242,406	-7,04338E-001	-7,04012E-001	1,58280E-004	...........
	240	243,416	-7,04303E-001	-7,04712E-001	1,58280E-004	...........
	241	244,426	-7,04292E-001	-7,04412E-001	1,58280E-004	...........
	242	245,436	-7,04308E-001	-7,03412E-001	1,58280E-004	...........
	243	246,446	-7,04292E-001	-7,04612E-001	5,82800E-005	...........
	244	247,456	-7,04239E-001	-7,05162E-001	1,58280E-004	...........
	245	248,466	-7,04264E-001	-7,04012E-001	1,58280E-004	...........
	246	249,476	-7,04370E-001	-7,03812E-001	5,82800E-005	...........
	247	250,486	-7,04408E-001	-7,04812E-001	1,58280E-004	...........
	248	251,496	-7,04358E-001	-7,04412E-001	1,58280E-004	...........
	249	252,506	-7,04334E-001	-7,04212E-001	5,82800E-005	...........
	250	253,516	-7,04348E-001	-7,03812E-001	1,58280E-004	...........
	251	254,526	-7,04298E-001	-7,03512E-001	5,82800E-005	...........
	252	255,536	-7,04146E-001	-7,04012E-001	5,82800E-005	...........
	253	256,546	-7,03960E-001	-7,03612E-001	2,58280E-004	...........
	254	257,556	-7,03812E-001	-7,02862E-001	5,82800E-005	...........
	255	258,566	-7,03670E-001	-7,03412E-001	1,58280E-004	...........
	256	259,576	-7,03518E-001	-7,04162E-001	1,58280E-004	...........
	257	260,586	-7,03438E-001	-7,02912E-001	5,82800E-005	...........
	258	261,596	-7,03420E-001	-7,01962E-001	1,58280E-004	...........
	259	262,607	-7,03298E-001	-7,02912E-001	1,58280E-004	...........
	260	263,617	-7,03044E-001	-7,03362E-001	5,82800E-005	...........
	261	264,627	-7,02855E-001	-7,02812E-001	1,58280E-004	...........
	262	265,637	-7,02854E-001	-7,03562E-001	1,58280E-004	...........
	263	266,647	-7,02969E-001	-7,03012E-001	1,58280E-004	...........
	264	267,657	-7,03094E-001	-7,03212E-001	1,58280E-004	...........
	265	268,667	-7,03167E-001	-7,03012E-001	5,82800E-005	...........
	266	269,677	-7,03161E-001	-7,02412E-001	5,82800E-005	...........
	267	270,687	-7,03068E-001	-7,02712E-001	5,82800E-005	...........
	268	271,697	-7,02919E-001	-7,03012E-001	5,82800E-005	...........
	269	272,707	-7,02829E-001	-7,04112E-001	2,58280E-004	...........
	270	273,717	-7,02918E-001	-7,03412E-001	1,58280E-004	...........
	271	274,727	-7,03154E-001	-7,03062E-001	2,58280E-004	...........
	272	275,737	-7,03350E-001	-7,03212E-001	5,82800E-005	...........
	273	276,747	-7,03378E-001	-7,02762E-001	1,58280E-004	...........
	274	277,757	-7,03264E-001	-7,02712E-001	5,82800E-005	...........
	275	278,767	-7,03109E-001	-7,03712E-001	5,82800E-005	...........
	276	279,777	-7,03028E-001	-7,03212E-001	5,82800E-005	...........
	277	280,787	-7,03076E-001	-7,03212E-001	5,82800E-005	...........
	278	281,797	-7,03203E-001	-7,04412E-001	1,58280E-004	...........
	279	282,807	-7,03362E-001	-7,03262E-001	1,58280E-004	...........
	280	283,817	-7,03526E-001	-7,03612E-001	5,82800E-005	...........
	281	284,827	-7,03622E-001	-7,03412E-001	1,58280E-004	...........
	282	285,837	-7,03631E-001	-7,04312E-001	1,58280E-004	...........
	283	286,847	-7,03612E-001	-7,02012E-001	5,82800E-005	...........
	284	287,857	-7,03523E-001	-7,02412E-001	5,82800E-005	...........
	285	288,867	-7,03256E-001	-7,02162E-001	5,82800E-005	...........
	286	289,877	-7,02872E-001	-7,02762E-001	1,58280E-004	...........
	287	290,887	-7,02578E-001	-7,02812E-001	5,82800E-005	...........
	288	291,897	-7,02490E-001	-7,02612E-001	1,58280E-004	...........
	289	292,907	-7,02539E-001	-7,02212E-001	1,58280E-004	...........
	290	293,917	-7,02594E-001	-7,03312E-001	-4,17200E-005	...........
	291	294,927	-7,02627E-001	-7,02512E-001	5,82800E-005	...........
	292	295,937	-7,02657E-001	-7,01762E-001	5,82800E-005	...........
	293	296,947	-7,02609E-001	-7,01812E-001	5,82800E-005	...........
	294	297,957	-7,02406E-001	-7,01412E-001	5,82800E-005	...........
	295	298,967	-7,02109E-001	-7,01712E-001	-4,17200E-005	...........
	296	299,977	-7,01858E-001	-7,02412E-001	5,82800E-005	...........
