EXPLAIN
TAG	CORPOT
TITLE	LABEL	Mats	Test Identifier
DATE	LABEL	28.2.2023	Date
TIME	LABEL	15.35.47	Time
NOTES	NOTES	1	Notes...
	
PSTAT	PSTAT	PCI4G750-47063	Potentiostat
TIMEOUT	QUANT	3,60000E+003	Total Time (s)
SAMPLETIME	QUANT	1,00000E+000	Sample Period (s)
STABILITY	QUANT	0,00000E+000	Stability (mV/s)
AREA	QUANT	1,00000E+000	Sample Area (cm^2)
SEQUENCER	TOGGLE	TRUE	Run as Sequence
PSTATMODEL	IQUANT	37	Pstat Model
PSTATSECTION	LABEL	PCI4G750-47063	Pstat Section
PSTATSERIALNO	LABEL	47063	Pstat Serial Number
CTRLMODE	IQUANT	1	Control Mode
IESTAB	IQUANT	2	I/E Stability
CASPEED	IQUANT	2	Control Amp Speed
CONVENTION	IQUANT	1	Current Convention
ICHRANGE	IQUANT	2	Ich Range
ICHRANGEMODE	TOGGLE	T	Ich Auto Range
ICHOFFSETENABLE	TOGGLE	F	Ich Offset Enable
ICHOFFSET	QUANT	0	Ich Offset (V)
ICHFILTER	IQUANT	3	Ich Filter
VCHRANGE	IQUANT	3	Vch Range
VCHRANGEMODE	TOGGLE	T	Vch Auto Range
VCHOFFSETENABLE	TOGGLE	F	Vch Offset Enable
VCHOFFSET	QUANT	0	Vch Offset (V)
VCHFILTER	IQUANT	3	Vch Filter
ACHRANGE	IQUANT	0	Ach Range
IERANGELOWERLIMIT	IQUANT	3	I/E Range Lower Limit
IERANGEMODE	TOGGLE	F	I/E AutoRange
IERANGE	IQUANT	10	I/E Range
POSFEEDENABLE	TOGGLE	F	Positive Feedback IR Comp
POSFEEDRESISTANCE	QUANT	0	Positive Feedback Resistance (ohm)
DCCALDATE	LABEL	15.11.2022	DC Calibration Date
ACCALDATE	LABEL	15.11.2022	AC Calibration Date
FRAMEWORKVERSION	QUANT	6,33	Framework Version
CURVE	TABLE	1015
	Pt	T	Vf	Vm	Ach	Over
	#	s	V vs. Ref.	V	V	bits
	0	1,01003	-1,08171E+000	-1,08171E+000	5,82800E-005	...........
	1	2,02005	-1,08169E+000	-1,08046E+000	5,82800E-005	...........
	2	3,03008	-1,08154E+000	-1,07926E+000	5,82800E-005	...........
	3	4,0401	-1,08112E+000	-1,07801E+000	5,82800E-005	...........
	4	5,05013	-1,08036E+000	-1,07671E+000	1,58280E-004	...........
	5	6,06015	-1,07932E+000	-1,07531E+000	1,58280E-004	...........
	6	7,07018	-1,07810E+000	-1,07411E+000	5,82800E-005	...........
	7	8,0802	-1,07681E+000	-1,07276E+000	2,58280E-004	...........
	8	9,09023	-1,07549E+000	-1,07136E+000	1,58280E-004	...........
	9	10,1003	-1,07417E+000	-1,07021E+000	1,58280E-004	...........
	10	11,1103	-1,07285E+000	-1,06866E+000	5,82800E-005	...........
	11	12,1203	-1,07152E+000	-1,06721E+000	5,82800E-005	...........
	12	13,1303	-1,07017E+000	-1,06581E+000	2,58280E-004	...........
	13	14,1404	-1,06877E+000	-1,06441E+000	5,82800E-005	...........
	14	15,1504	-1,06736E+000	-1,06301E+000	5,82800E-005	...........
	15	16,1604	-1,06593E+000	-1,06146E+000	5,82800E-005	...........
	16	17,1704	-1,06451E+000	-1,06001E+000	2,58280E-004	...........
	17	18,1805	-1,06306E+000	-1,05861E+000	-4,17200E-005	...........
	18	19,1905	-1,06161E+000	-1,05716E+000	5,82800E-005	...........
	19	20,2005	-1,06015E+000	-1,05561E+000	1,58280E-004	...........
	20	21,2105	-1,05870E+000	-1,05421E+000	1,58280E-004	...........
	21	22,2206	-1,05724E+000	-1,05261E+000	5,82800E-005	...........
	22	23,2306	-1,05576E+000	-1,05101E+000	1,58280E-004	...........
	23	24,2406	-1,05425E+000	-1,04961E+000	5,82800E-005	...........
	24	25,2506	-1,05273E+000	-1,04806E+000	1,58280E-004	...........
	25	26,2607	-1,05121E+000	-1,04646E+000	5,82800E-005	...........
	26	27,2707	-1,04968E+000	-1,04501E+000	1,58280E-004	...........
	27	28,2807	-1,04816E+000	-1,04336E+000	5,82800E-005	...........
	28	29,2907	-1,04662E+000	-1,04171E+000	5,82800E-005	...........
	29	30,3008	-1,04505E+000	-1,04001E+000	1,58280E-004	...........
	30	31,3108	-1,04346E+000	-1,03841E+000	5,82800E-005	...........
	31	32,3208	-1,04183E+000	-1,03681E+000	5,82800E-005	...........
	32	33,3308	-1,04018E+000	-1,03511E+000	1,58280E-004	...........
	33	34,3409	-1,03854E+000	-1,03341E+000	5,82800E-005	...........
	34	35,3509	-1,03689E+000	-1,03181E+000	5,82800E-005	...........
	35	36,3609	-1,03524E+000	-1,03001E+000	1,58280E-004	...........
	36	37,3709	-1,03357E+000	-1,02861E+000	5,82800E-005	...........
	37	38,381	-1,03191E+000	-1,02671E+000	1,58280E-004	...........
	38	39,391	-1,03025E+000	-1,02501E+000	5,82800E-005	...........
	39	40,401	-1,02857E+000	-1,02326E+000	5,82800E-005	...........
	40	41,411	-1,02687E+000	-1,02151E+000	5,82800E-005	...........
	41	42,4211	-1,02514E+000	-1,01966E+000	2,58280E-004	...........
	42	43,4311	-1,02338E+000	-1,01781E+000	5,82800E-005	...........
	43	44,4411	-1,02160E+000	-1,01596E+000	5,82800E-005	...........
	44	45,4511	-1,01979E+000	-1,01421E+000	5,82800E-005	...........
	45	46,4612	-1,01796E+000	-1,01216E+000	-4,17200E-005	...........
	46	47,4712	-1,01612E+000	-1,01021E+000	1,58280E-004	...........
	47	48,4812	-1,01424E+000	-1,00841E+000	-4,17200E-005	...........
	48	49,4912	-1,01234E+000	-1,00641E+000	1,58280E-004	...........
	49	50,5013	-1,01042E+000	-1,00436E+000	5,82800E-005	...........
	50	51,5113	-1,00848E+000	-1,00241E+000	5,82800E-005	...........
	51	52,5213	-1,00653E+000	-1,00046E+000	5,82800E-005	...........
	52	53,5313	-1,00456E+000	-9,98512E-001	5,82800E-005	...........
	53	54,5414	-1,00258E+000	-9,96612E-001	1,58280E-004	...........
	54	55,5514	-1,00063E+000	-9,94762E-001	5,82800E-005	...........
	55	56,5614	-9,98693E-001	-9,92812E-001	-4,17200E-005	...........
	56	57,5714	-9,96777E-001	-9,90812E-001	1,58280E-004	...........
	57	58,5815	-9,94862E-001	-9,88912E-001	1,58280E-004	...........
	58	59,5915	-9,92936E-001	-9,87012E-001	5,82800E-005	...........
	59	60,6015	-9,91000E-001	-9,84912E-001	5,82800E-005	...........
	60	61,6115	-9,89054E-001	-9,83012E-001	1,58280E-004	...........
	61	62,6216	-9,87094E-001	-9,80962E-001	1,58280E-004	...........
	62	63,6316	-9,85117E-001	-9,79012E-001	1,58280E-004	...........
	63	64,6416	-9,83134E-001	-9,77112E-001	2,58280E-004	...........
	64	65,6516	-9,81156E-001	-9,75162E-001	1,58280E-004	...........
	65	66,6617	-9,79195E-001	-9,73212E-001	5,82800E-005	...........
	66	67,6717	-9,77249E-001	-9,71312E-001	5,82800E-005	...........
	67	68,6817	-9,75312E-001	-9,69412E-001	-4,17200E-005	...........
	68	69,6917	-9,73383E-001	-9,67412E-001	5,82800E-005	...........
	69	70,7018	-9,71457E-001	-9,65562E-001	5,82800E-005	...........
	70	71,7118	-9,69534E-001	-9,63712E-001	1,58280E-004	...........
	71	72,7218	-9,67620E-001	-9,61812E-001	5,82800E-005	...........
	72	73,7318	-9,65725E-001	-9,60012E-001	5,82800E-005	...........
	73	74,7419	-9,63850E-001	-9,58212E-001	5,82800E-005	...........
	74	75,7519	-9,61997E-001	-9,56412E-001	5,82800E-005	...........
	75	76,7619	-9,60169E-001	-9,54762E-001	1,58280E-004	...........
	76	77,7719	-9,58374E-001	-9,53112E-001	1,58280E-004	...........
	77	78,782	-9,56621E-001	-9,51412E-001	5,82800E-005	...........
	78	79,792	-9,54909E-001	-9,49762E-001	5,82800E-005	...........
	79	80,802	-9,53226E-001	-9,48212E-001	5,82800E-005	...........
	80	81,812	-9,51568E-001	-9,46612E-001	-4,17200E-005	...........
	81	82,8221	-9,49939E-001	-9,45162E-001	1,58280E-004	...........
	82	83,8321	-9,48343E-001	-9,43512E-001	5,82800E-005	...........
	83	84,8421	-9,46772E-001	-9,41812E-001	1,58280E-004	...........
	84	85,8521	-9,45195E-001	-9,40112E-001	5,82800E-005	...........
	85	86,8622	-9,43585E-001	-9,38512E-001	5,82800E-005	...........
	86	87,8722	-9,41945E-001	-9,37012E-001	5,82800E-005	...........
	87	88,8822	-9,40310E-001	-9,35612E-001	1,58280E-004	...........
	88	89,8922	-9,38716E-001	-9,34012E-001	5,82800E-005	...........
	89	90,9023	-9,37174E-001	-9,32612E-001	1,58280E-004	...........
	90	91,9123	-9,35667E-001	-9,31062E-001	5,82800E-005	...........
	91	92,9223	-9,34175E-001	-9,29562E-001	5,82800E-005	...........
	92	93,9323	-9,32682E-001	-9,28012E-001	5,82800E-005	...........
	93	94,9424	-9,31178E-001	-9,26462E-001	1,58280E-004	...........
	94	95,952	-9,29666E-001	-9,25262E-001	5,82800E-005	...........
	95	96,962	-9,28172E-001	-9,23912E-001	1,58280E-004	...........
	96	97,972	-9,26723E-001	-9,22262E-001	1,58280E-004	...........
	97	98,982	-9,25306E-001	-9,20712E-001	5,82800E-005	...........
	98	99,992	-9,23870E-001	-9,19312E-001	5,82800E-005	...........
	99	101,003	-9,22399E-001	-9,18012E-001	1,58280E-004	...........
	100	102,013	-9,20929E-001	-9,16712E-001	5,82800E-005	...........
	101	103,023	-9,19502E-001	-9,15312E-001	1,58280E-004	...........
	102	104,033	-9,18124E-001	-9,14012E-001	5,82800E-005	...........
	103	105,043	-9,16778E-001	-9,12712E-001	5,82800E-005	...........
	104	106,053	-9,15450E-001	-9,11612E-001	1,58280E-004	...........
	105	107,063	-9,14151E-001	-9,10412E-001	5,82800E-005	...........
	106	108,073	-9,12899E-001	-9,09312E-001	5,82800E-005	...........
	107	109,083	-9,11698E-001	-9,08262E-001	5,82800E-005	...........
	108	110,093	-9,10544E-001	-9,07212E-001	1,58280E-004	...........
	109	111,103	-9,09433E-001	-9,06212E-001	1,58280E-004	...........
	110	112,113	-9,08357E-001	-9,05112E-001	1,58280E-004	...........
	111	113,123	-9,07302E-001	-9,04012E-001	2,58280E-004	...........
	112	114,133	-9,06251E-001	-9,03062E-001	5,82800E-005	...........
	113	115,143	-9,05202E-001	-9,02212E-001	5,82800E-005	...........
	114	116,153	-9,04177E-001	-9,01212E-001	5,82800E-005	...........
	115	117,163	-9,03190E-001	-9,00212E-001	5,82800E-005	...........
	116	118,173	-9,02227E-001	-8,99212E-001	5,82800E-005	...........
	117	119,183	-9,01267E-001	-8,98462E-001	-4,17200E-005	...........
	118	120,193	-9,00311E-001	-8,97412E-001	1,58280E-004	...........
	119	121,203	-8,99385E-001	-8,97212E-001	1,58280E-004	...........
	120	122,213	-8,98531E-001	-8,96562E-001	1,58280E-004	...........
	121	123,223	-8,97793E-001	-8,96062E-001	5,82800E-005	...........
	122	124,233	-8,97167E-001	-8,95412E-001	2,58280E-004	...........
	123	125,243	-8,96596E-001	-8,94612E-001	1,58280E-004	...........
	124	126,253	-8,96011E-001	-8,93812E-001	1,58280E-004	...........
	125	127,263	-8,95364E-001	-8,93012E-001	5,82800E-005	...........
	126	128,273	-8,94647E-001	-8,92262E-001	1,58280E-004	...........
	127	129,283	-8,93881E-001	-8,91412E-001	5,82800E-005	...........
	128	130,293	-8,93094E-001	-8,90662E-001	1,58280E-004	...........
	129	131,303	-8,92302E-001	-8,90012E-001	5,82800E-005	...........
	130	132,313	-8,91526E-001	-8,89412E-001	1,58280E-004	...........
	131	133,323	-8,90787E-001	-8,88662E-001	5,82800E-005	...........
	132	134,333	-8,90088E-001	-8,88012E-001	5,82800E-005	...........
	133	135,343	-8,89409E-001	-8,87312E-001	5,82800E-005	...........
	134	136,353	-8,88732E-001	-8,86612E-001	5,82800E-005	...........
	135	137,363	-8,88051E-001	-8,85962E-001	5,82800E-005	...........
	136	138,373	-8,87367E-001	-8,85262E-001	5,82800E-005	...........
	137	139,383	-8,86684E-001	-8,84612E-001	5,82800E-005	...........
	138	140,393	-8,86002E-001	-8,83812E-001	5,82800E-005	...........
	139	141,404	-8,85314E-001	-8,83112E-001	5,82800E-005	...........
	140	142,414	-8,84633E-001	-8,83512E-001	5,82800E-005	...........
	141	143,424	-8,84037E-001	-8,83312E-001	5,82800E-005	...........
	142	144,434	-8,83618E-001	-8,82862E-001	5,82800E-005	...........
	143	145,444	-8,83351E-001	-8,82312E-001	1,58280E-004	...........
	144	146,454	-8,83103E-001	-8,81662E-001	5,82800E-005	...........
	145	147,464	-8,82756E-001	-8,81012E-001	2,58280E-004	...........
	146	148,474	-8,82279E-001	-8,80312E-001	1,58280E-004	...........
	147	149,484	-8,81701E-001	-8,79812E-001	-4,17200E-005	...........
	148	150,494	-8,81074E-001	-8,79162E-001	1,58280E-004	...........
	149	151,504	-8,80444E-001	-8,78612E-001	1,58280E-004	...........
	150	152,514	-8,79829E-001	-8,77912E-001	1,58280E-004	...........
	151	153,524	-8,79221E-001	-8,77312E-001	5,82800E-005	...........
	152	154,534	-8,78611E-001	-8,76812E-001	5,82800E-005	...........
	153	155,544	-8,78002E-001	-8,76212E-001	1,58280E-004	...........
	154	156,554	-8,77407E-001	-8,75612E-001	1,58280E-004	...........
	155	157,564	-8,76825E-001	-8,75012E-001	1,58280E-004	...........
	156	158,574	-8,76243E-001	-8,74412E-001	5,82800E-005	...........
	157	159,584	-8,75652E-001	-8,73712E-001	1,58280E-004	...........
	158	160,594	-8,75048E-001	-8,73162E-001	5,82800E-005	...........
	159	161,604	-8,74433E-001	-8,72612E-001	-4,17200E-005	...........
	160	162,614	-8,73839E-001	-8,72962E-001	-4,17200E-005	...........
	161	163,624	-8,73343E-001	-8,72762E-001	5,82800E-005	...........
	162	164,634	-8,73004E-001	-8,72112E-001	1,58280E-004	...........
	163	165,644	-8,72766E-001	-8,71612E-001	5,82800E-005	...........
	164	166,654	-8,72496E-001	-8,71012E-001	5,82800E-005	...........
	165	167,664	-8,72115E-001	-8,70562E-001	5,82800E-005	...........
	166	168,674	-8,71638E-001	-8,70012E-001	1,58280E-004	...........
	167	169,684	-8,71120E-001	-8,69612E-001	5,82800E-005	...........
	168	170,694	-8,70600E-001	-8,69012E-001	1,58280E-004	...........
	169	171,704	-8,70093E-001	-8,68612E-001	1,58280E-004	...........
	170	172,714	-8,69597E-001	-8,68112E-001	5,82800E-005	...........
	171	173,724	-8,69108E-001	-8,67612E-001	1,58280E-004	...........
	172	174,734	-8,68623E-001	-8,67012E-001	5,82800E-005	...........
	173	175,744	-8,68126E-001	-8,66462E-001	5,82800E-005	...........
	174	176,754	-8,67607E-001	-8,65912E-001	1,58280E-004	...........
	175	177,764	-8,67067E-001	-8,65412E-001	1,58280E-004	...........
	176	178,774	-8,66517E-001	-8,64762E-001	5,82800E-005	...........
	177	179,784	-8,65960E-001	-8,64012E-001	1,58280E-004	...........
	178	180,794	-8,65379E-001	-8,63412E-001	5,82800E-005	...........
	179	181,805	-8,64761E-001	-8,62812E-001	5,82800E-005	...........
	180	182,815	-8,64143E-001	-8,63312E-001	5,82800E-005	...........
	181	183,825	-8,63630E-001	-8,63412E-001	5,82800E-005	...........
	182	184,835	-8,63319E-001	-8,62662E-001	1,58280E-004	...........
	183	185,845	-8,63159E-001	-8,62212E-001	1,58280E-004	...........
	184	186,855	-8,62980E-001	-8,61612E-001	5,82800E-005	...........
	185	187,865	-8,62663E-001	-8,61012E-001	1,58280E-004	...........
	186	188,875	-8,62209E-001	-8,60612E-001	5,82800E-005	...........
	187	189,885	-8,61681E-001	-8,60012E-001	1,58280E-004	...........
	188	190,895	-8,61135E-001	-8,59362E-001	2,58280E-004	...........
	189	191,905	-8,60588E-001	-8,59012E-001	5,82800E-005	...........
	190	192,915	-8,60047E-001	-8,58612E-001	5,82800E-005	...........
	191	193,925	-8,59533E-001	-8,58162E-001	5,82800E-005	...........
	192	194,935	-8,59058E-001	-8,57562E-001	1,58280E-004	...........
	193	195,945	-8,58599E-001	-8,57062E-001	5,82800E-005	...........
	194	196,955	-8,58121E-001	-8,56362E-001	5,82800E-005	...........
	195	197,965	-8,57602E-001	-8,55812E-001	5,82800E-005	...........
	196	198,975	-8,57039E-001	-8,55112E-001	5,82800E-005	...........
	197	199,985	-8,56440E-001	-8,54462E-001	5,82800E-005	...........
	198	200,995	-8,55816E-001	-8,53862E-001	5,82800E-005	...........
	199	202,005	-8,55202E-001	-8,54512E-001	1,58280E-004	...........
	200	203,015	-8,54697E-001	-8,54212E-001	5,82800E-005	...........
	201	204,025	-8,54380E-001	-8,53612E-001	1,58280E-004	...........
	202	205,035	-8,54183E-001	-8,53012E-001	5,82800E-005	...........
	203	206,045	-8,53947E-001	-8,52612E-001	1,58280E-004	...........
	204	207,055	-8,53586E-001	-8,52012E-001	5,82800E-005	...........
	205	208,065	-8,53126E-001	-8,51612E-001	1,58280E-004	...........
	206	209,075	-8,52622E-001	-8,51012E-001	-4,17200E-005	...........
	207	210,085	-8,52110E-001	-8,50562E-001	1,58280E-004	...........
	208	211,095	-8,51601E-001	-8,50112E-001	5,82800E-005	...........
	209	212,105	-8,51098E-001	-8,49512E-001	1,58280E-004	...........
	210	213,115	-8,50598E-001	-8,48962E-001	-4,17200E-005	...........
	211	214,125	-8,50088E-001	-8,48462E-001	5,82800E-005	...........
	212	215,135	-8,49560E-001	-8,47812E-001	-4,17200E-005	...........
	213	216,145	-8,49012E-001	-8,47062E-001	5,82800E-005	...........
	214	217,155	-8,48437E-001	-8,46762E-001	5,82800E-005	...........
	215	218,165	-8,47849E-001	-8,46212E-001	5,82800E-005	...........
	216	219,175	-8,47293E-001	-8,46312E-001	5,82800E-005	...........
	217	220,185	-8,46831E-001	-8,46212E-001	5,82800E-005	...........
	218	221,195	-8,46499E-001	-8,45812E-001	5,82800E-005	...........
	219	222,206	-8,46268E-001	-8,45412E-001	5,82800E-005	...........
	220	223,216	-8,46047E-001	-8,44912E-001	5,82800E-005	...........
	221	224,226	-8,45764E-001	-8,44612E-001	5,82800E-005	...........
	222	225,236	-8,45407E-001	-8,44012E-001	1,58280E-004	...........
	223	226,246	-8,44992E-001	-8,43262E-001	-4,17200E-005	...........
	224	227,256	-8,44519E-001	-8,42862E-001	5,82800E-005	...........
	225	228,266	-8,43986E-001	-8,42112E-001	5,82800E-005	...........
	226	229,276	-8,43409E-001	-8,41412E-001	5,82800E-005	...........
	227	230,286	-8,42799E-001	-8,40812E-001	1,58280E-004	...........
	228	231,296	-8,42174E-001	-8,40912E-001	5,82800E-005	...........
	229	232,306	-8,41613E-001	-8,41112E-001	5,82800E-005	...........
	230	233,316	-8,41206E-001	-8,40162E-001	1,58280E-004	...........
	231	234,326	-8,40924E-001	-8,39512E-001	1,58280E-004	...........
	232	235,336	-8,40615E-001	-8,38912E-001	5,82800E-005	...........
	233	236,346	-8,40168E-001	-8,38212E-001	5,82800E-005	...........
	234	237,356	-8,39597E-001	-8,37712E-001	5,82800E-005	...........
	235	238,366	-8,38971E-001	-8,37112E-001	1,58280E-004	...........
	236	239,376	-8,38348E-001	-8,36662E-001	5,82800E-005	...........
	237	240,386	-8,37757E-001	-8,36012E-001	5,82800E-005	...........
	238	241,396	-8,37197E-001	-8,35712E-001	1,58280E-004	...........
	239	242,406	-8,36667E-001	-8,35212E-001	1,58280E-004	...........
	240	243,416	-8,36167E-001	-8,34612E-001	-4,17200E-005	...........
	241	244,426	-8,35682E-001	-8,34112E-001	5,82800E-005	...........
	242	245,436	-8,35186E-001	-8,33412E-001	5,82800E-005	...........
	243	246,446	-8,34667E-001	-8,33412E-001	1,58280E-004	...........
	244	247,456	-8,34144E-001	-8,32162E-001	5,82800E-005	...........
	245	248,466	-8,33613E-001	-8,31612E-001	5,82800E-005	...........
	246	249,476	-8,33034E-001	-8,31212E-001	1,58280E-004	...........
	247	250,486	-8,32428E-001	-8,31612E-001	-4,17200E-005	...........
	248	251,496	-8,31916E-001	-8,31412E-001	5,82800E-005	...........
	249	252,506	-8,31588E-001	-8,30812E-001	5,82800E-005	...........
	250	253,516	-8,31382E-001	-8,30312E-001	5,82800E-005	...........
	251	254,526	-8,31152E-001	-8,30012E-001	5,82800E-005	...........
	252	255,536	-8,30829E-001	-8,29612E-001	5,82800E-005	...........
	253	256,546	-8,30436E-001	-8,28912E-001	5,82800E-005	...........
	254	257,556	-8,29999E-001	-8,28312E-001	1,58280E-004	...........
	255	258,566	-8,29519E-001	-8,28212E-001	1,58280E-004	...........
	256	259,576	-8,29011E-001	-8,27162E-001	5,82800E-005	...........
	257	260,586	-8,28493E-001	-8,26812E-001	5,82800E-005	...........
	258	261,596	-8,27961E-001	-8,26612E-001	-4,17200E-005	...........
	259	262,607	-8,27443E-001	-8,26312E-001	1,58280E-004	...........
	260	263,617	-8,26986E-001	-8,25612E-001	1,58280E-004	...........
	261	264,627	-8,26578E-001	-8,25162E-001	1,58280E-004	...........
	262	265,637	-8,26158E-001	-8,24562E-001	-4,17200E-005	...........
	263	266,647	-8,25686E-001	-8,24012E-001	-4,17200E-005	...........
	264	267,657	-8,25166E-001	-8,23462E-001	-4,17200E-005	...........
	265	268,667	-8,24611E-001	-8,22462E-001	5,82800E-005	...........
	266	269,677	-8,24013E-001	-8,22012E-001	5,82800E-005	...........
	267	270,687	-8,23365E-001	-8,21312E-001	1,58280E-004	...........
	268	271,697	-8,22703E-001	-8,21212E-001	5,82800E-005	...........
	269	272,707	-8,22088E-001	-8,20512E-001	1,58280E-004	...........
	270	273,717	-8,21564E-001	-8,20812E-001	1,58280E-004	...........
	271	274,727	-8,21145E-001	-8,20012E-001	5,82800E-005	...........
	272	275,737	-8,20791E-001	-8,19012E-001	1,58280E-004	...........
	273	276,747	-8,20391E-001	-8,18212E-001	1,58280E-004	...........
	274	277,757	-8,19854E-001	-8,18412E-001	1,58280E-004	...........
	275	278,767	-8,19253E-001	-8,18412E-001	1,58280E-004	...........
	276	279,777	-8,18761E-001	-8,18012E-001	1,58280E-004	...........
	277	280,787	-8,18437E-001	-8,17412E-001	1,58280E-004	...........
	278	281,797	-8,18177E-001	-8,16762E-001	5,82800E-005	...........
	279	282,807	-8,17840E-001	-8,15912E-001	5,82800E-005	...........
	280	283,817	-8,17356E-001	-8,15262E-001	5,82800E-005	...........
	281	284,827	-8,16764E-001	-8,15912E-001	5,82800E-005	...........
	282	285,837	-8,16186E-001	-8,14212E-001	5,82800E-005	...........
	283	286,847	-8,15680E-001	-8,14012E-001	1,58280E-004	...........
	284	287,857	-8,15171E-001	-8,13212E-001	5,82800E-005	...........
	285	288,867	-8,14598E-001	-8,12862E-001	5,82800E-005	...........
	286	289,877	-8,13993E-001	-8,12312E-001	1,58280E-004	...........
	287	290,887	-8,13413E-001	-8,11912E-001	5,82800E-005	...........
	288	291,897	-8,12876E-001	-8,11212E-001	1,58280E-004	...........
	289	292,907	-8,12369E-001	-8,11012E-001	5,82800E-005	...........
	290	293,917	-8,11883E-001	-8,10712E-001	-4,17200E-005	...........
	291	294,927	-8,11445E-001	-8,10662E-001	5,82800E-005	...........
	292	295,937	-8,11097E-001	-8,10812E-001	1,58280E-004	...........
	293	296,947	-8,10853E-001	-8,09712E-001	1,58280E-004	...........
	294	297,957	-8,10631E-001	-8,09012E-001	-4,17200E-005	...........
	295	298,967	-8,10294E-001	-8,08412E-001	5,82800E-005	...........
	296	299,977	-8,09784E-001	-8,07912E-001	1,58280E-004	...........
	297	300,987	-8,09176E-001	-8,07612E-001	5,82800E-005	...........
	298	301,997	-8,08572E-001	-8,06712E-001	1,58280E-004	...........
	299	303,008	-8,08000E-001	-8,06012E-001	5,82800E-005	...........
	300	304,018	-8,07416E-001	-8,05462E-001	5,82800E-005	...........
	301	305,028	-8,06789E-001	-8,04712E-001	1,58280E-004	...........
	302	306,038	-8,06157E-001	-8,05412E-001	1,58280E-004	...........
	303	307,048	-8,05624E-001	-8,04912E-001	1,58280E-004	...........
	304	308,058	-8,05273E-001	-8,04612E-001	5,82800E-005	...........
	305	309,068	-8,05046E-001	-8,03762E-001	-4,17200E-005	...........
	306	310,078	-8,04789E-001	-8,03212E-001	-4,17200E-005	...........
	307	311,088	-8,04409E-001	-8,03162E-001	5,82800E-005	...........
	308	312,098	-8,03932E-001	-8,02112E-001	5,82800E-005	...........
	309	313,108	-8,03418E-001	-8,01612E-001	1,58280E-004	...........
	310	314,118	-8,02868E-001	-8,00862E-001	1,58280E-004	...........
	311	315,128	-8,02270E-001	-8,00562E-001	1,58280E-004	...........
	312	316,138	-8,01662E-001	-8,00212E-001	1,58280E-004	...........
	313	317,148	-8,01098E-001	-7,99412E-001	5,82800E-005	...........
	314	318,158	-8,00625E-001	-8,01212E-001	1,58280E-004	...........
	315	319,168	-8,00386E-001	-8,03212E-001	5,82800E-005	...........
	316	320,178	-8,00583E-001	-8,01512E-001	5,82800E-005	...........
	317	321,188	-8,01135E-001	-8,02112E-001	1,58280E-004	...........
	318	322,198	-8,01627E-001	-7,99812E-001	1,58280E-004	...........
	319	323,208	-8,01672E-001	-7,98612E-001	5,82800E-005	...........
	320	324,218	-8,01234E-001	-8,02762E-001	-4,17200E-005	...........
	321	325,228	-8,00663E-001	-7,96962E-001	1,58280E-004	...........
	322	326,238	-8,00144E-001	-7,96062E-001	2,58280E-004	...........
	323	327,248	-7,99361E-001	-7,95012E-001	1,58280E-004	...........
	324	328,258	-7,98110E-001	-7,94112E-001	1,58280E-004	...........
	325	329,268	-7,96682E-001	-7,94112E-001	1,58280E-004	...........
	326	330,278	-7,95465E-001	-7,93962E-001	1,58280E-004	...........
	327	331,288	-7,94635E-001	-7,93562E-001	1,58280E-004	...........
	328	332,298	-7,94145E-001	-7,93312E-001	5,82800E-005	...........
	329	333,308	-7,93835E-001	-7,92962E-001	5,82800E-005	...........
	330	334,318	-7,93560E-001	-7,92062E-001	-4,17200E-005	...........
	331	335,328	-7,93225E-001	-7,91812E-001	1,58280E-004	...........
	332	336,338	-7,92792E-001	-7,91012E-001	2,58280E-004	...........
	333	337,348	-7,92276E-001	-7,90412E-001	2,58280E-004	...........
	334	338,358	-7,91705E-001	-7,89812E-001	5,82800E-005	...........
	335	339,368	-7,91105E-001	-7,89462E-001	5,82800E-005	...........
	336	340,378	-7,90526E-001	-7,89612E-001	1,58280E-004	...........
	337	341,388	-7,90053E-001	-7,89612E-001	-4,17200E-005	...........
	338	342,398	-7,89734E-001	-7,88712E-001	5,82800E-005	...........
	339	343,409	-7,89508E-001	-7,88612E-001	5,82800E-005	...........
	340	344,419	-7,89268E-001	-7,88612E-001	5,82800E-005	...........
	341	345,429	-7,88986E-001	-7,87762E-001	5,82800E-005	...........
	342	346,439	-7,88662E-001	-7,86562E-001	5,82800E-005	...........
	343	347,449	-7,88223E-001	-7,86162E-001	5,82800E-005	...........
	344	348,459	-7,87624E-001	-7,85662E-001	5,82800E-005	...........
	345	349,469	-7,86964E-001	-7,86212E-001	5,82800E-005	...........
	346	350,479	-7,86419E-001	-7,85712E-001	1,58280E-004	...........
	347	351,489	-7,86089E-001	-7,86012E-001	1,58280E-004	...........
	348	352,499	-7,85918E-001	-7,84612E-001	5,82800E-005	...........
	349	353,509	-7,85749E-001	-7,84612E-001	1,58280E-004	...........
	350	354,519	-7,85449E-001	-7,83812E-001	5,82800E-005	...........
	351	355,529	-7,84997E-001	-7,82812E-001	5,82800E-005	...........
	352	356,539	-7,84427E-001	-7,82412E-001	5,82800E-005	...........
	353	357,549	-7,83771E-001	-7,81712E-001	-4,17200E-005	...........
	354	358,559	-7,83093E-001	-7,81412E-001	5,82800E-005	...........
	355	359,569	-7,82476E-001	-7,81812E-001	5,82800E-005	...........
	356	360,579	-7,81993E-001	-7,80712E-001	2,58280E-004	...........
	357	361,589	-7,81668E-001	-7,82112E-001	5,82800E-005	...........
	358	362,599	-7,81473E-001	-7,80362E-001	5,82800E-005	...........
	359	363,609	-7,81344E-001	-7,81012E-001	1,58280E-004	...........
	360	364,619	-7,81186E-001	-7,80012E-001	5,82800E-005	...........
	361	365,629	-7,80940E-001	-7,79712E-001	1,58280E-004	...........
	362	366,639	-7,80584E-001	-7,78362E-001	5,82800E-005	...........
	363	367,649	-7,80088E-001	-7,78012E-001	1,58280E-004	...........
	364	368,659	-7,79449E-001	-7,77262E-001	5,82800E-005	...........
	365	369,669	-7,78741E-001	-7,76812E-001	5,82800E-005	...........
	366	370,679	-7,78046E-001	-7,76112E-001	5,82800E-005	...........
	367	371,689	-7,77447E-001	-7,78112E-001	5,82800E-005	...........
	368	372,699	-7,77069E-001	-7,76512E-001	5,82800E-005	...........
	369	373,709	-7,76938E-001	-7,76012E-001	5,82800E-005	...........
	370	374,719	-7,76862E-001	-7,76412E-001	5,82800E-005	...........
	371	375,729	-7,76668E-001	-7,75112E-001	5,82800E-005	...........
	372	376,739	-7,76333E-001	-7,74212E-001	1,58280E-004	...........
	373	377,749	-7,75839E-001	-7,73562E-001	5,82800E-005	...........
	374	378,759	-7,75180E-001	-7,72912E-001	-4,17200E-005	...........
	375	379,769	-7,74446E-001	-7,73012E-001	5,82800E-005	...........
	376	380,779	-7,73779E-001	-7,72612E-001	5,82800E-005	...........
	377	381,789	-7,73262E-001	-7,71812E-001	5,82800E-005	...........
	378	382,799	-7,72851E-001	-7,71712E-001	1,58280E-004	...........
	379	383,81	-7,72463E-001	-7,71412E-001	1,58280E-004	...........
	380	384,82	-7,72075E-001	-7,70662E-001	5,82800E-005	...........
	381	385,83	-7,71681E-001	-7,70262E-001	-4,17200E-005	...........
	382	386,84	-7,71260E-001	-7,70012E-001	5,82800E-005	...........
	383	387,85	-7,70804E-001	-7,68812E-001	5,82800E-005	...........
	384	388,86	-7,70300E-001	-7,68412E-001	5,82800E-005	...........
	385	389,87	-7,69738E-001	-7,68412E-001	1,58280E-004	...........
	386	390,88	-7,69158E-001	-7,67212E-001	5,82800E-005	...........
	387	391,89	-7,68604E-001	-7,66812E-001	5,82800E-005	...........
	388	392,9	-7,68087E-001	-7,68412E-001	5,82800E-005	...........
	389	393,91	-7,67708E-001	-7,67412E-001	1,58280E-004	...........
	390	394,92	-7,67541E-001	-7,66312E-001	1,58280E-004	...........
	391	395,93	-7,67424E-001	-7,66212E-001	1,58280E-004	...........
	392	396,94	-7,67141E-001	-7,65312E-001	2,58280E-004	...........
	393	397,95	-7,66662E-001	-7,64612E-001	1,58280E-004	...........
	394	398,96	-7,66062E-001	-7,64012E-001	5,82800E-005	...........
	395	399,97	-7,65403E-001	-7,63412E-001	5,82800E-005	...........
	396	400,98	-7,64733E-001	-7,62712E-001	5,82800E-005	...........
	397	401,99	-7,64076E-001	-7,62162E-001	1,58280E-004	...........
	398	403	-7,63445E-001	-7,62062E-001	5,82800E-005	...........
	399	404,01	-7,62887E-001	-7,62312E-001	5,82800E-005	...........
	400	405,02	-7,62464E-001	-7,61212E-001	1,58280E-004	...........
	401	406,03	-7,62139E-001	-7,60512E-001	1,58280E-004	...........
	402	407,04	-7,61774E-001	-7,60162E-001	1,58280E-004	...........
	403	408,05	-7,61292E-001	-7,59612E-001	5,82800E-005	...........
	404	409,06	-7,60735E-001	-7,58812E-001	5,82800E-005	...........
	405	410,07	-7,60152E-001	-7,58212E-001	5,82800E-005	...........
	406	411,08	-7,59549E-001	-7,57712E-001	-4,17200E-005	...........
	407	412,09	-7,58933E-001	-7,57212E-001	5,82800E-005	...........
	408	413,1	-7,58335E-001	-7,56662E-001	5,82800E-005	...........
	409	414,11	-7,57779E-001	-7,56562E-001	1,58280E-004	...........
	410	415,12	-7,57286E-001	-7,56212E-001	5,82800E-005	...........
	411	416,13	-7,56873E-001	-7,55912E-001	1,58280E-004	...........
	412	417,14	-7,56523E-001	-7,55212E-001	1,58280E-004	...........
	413	418,15	-7,56195E-001	-7,55812E-001	5,82800E-005	...........
	414	419,16	-7,55871E-001	-7,53962E-001	1,58280E-004	...........
	415	420,17	-7,55500E-001	-7,53212E-001	5,82800E-005	...........
	416	421,18	-7,54971E-001	-7,52662E-001	5,82800E-005	...........
	417	422,19	-7,54305E-001	-7,54212E-001	5,82800E-005	...........
	418	423,201	-7,53734E-001	-7,52862E-001	5,82800E-005	...........
	419	424,211	-7,53386E-001	-7,51012E-001	1,58280E-004	...........
	420	425,221	-7,53049E-001	-7,51012E-001	5,82800E-005	...........
	421	426,231	-7,52491E-001	-7,50412E-001	5,82800E-005	...........
	422	427,241	-7,51775E-001	-7,49962E-001	5,82800E-005	...........
	423	428,251	-7,51095E-001	-7,49912E-001	5,82800E-005	...........
	424	429,261	-7,50547E-001	-7,49312E-001	5,82800E-005	...........
	425	430,271	-7,50132E-001	-7,49612E-001	1,58280E-004	...........
	426	431,281	-7,49794E-001	-7,47662E-001	1,58280E-004	...........
	427	432,291	-7,49403E-001	-7,46812E-001	1,58280E-004	...........
	428	433,301	-7,48812E-001	-7,46462E-001	5,82800E-005	...........
	429	434,311	-7,48042E-001	-7,46312E-001	5,82800E-005	...........
	430	435,321	-7,47273E-001	-7,45212E-001	5,82800E-005	...........
	431	436,331	-7,46612E-001	-7,44862E-001	5,82800E-005	...........
	432	437,341	-7,46043E-001	-7,45412E-001	-4,17200E-005	...........
	433	438,351	-7,45566E-001	-7,44112E-001	5,82800E-005	...........
	434	439,361	-7,45180E-001	-7,43812E-001	1,58280E-004	...........
	435	440,371	-7,44798E-001	-7,43312E-001	1,58280E-004	...........
	436	441,381	-7,44356E-001	-7,43012E-001	5,82800E-005	...........
	437	442,391	-7,43870E-001	-7,41812E-001	1,58280E-004	...........
	438	443,401	-7,43339E-001	-7,41262E-001	1,58280E-004	...........
	439	444,411	-7,42743E-001	-7,41362E-001	5,82800E-005	...........
	440	445,421	-7,42134E-001	-7,40512E-001	5,82800E-005	...........
	441	446,431	-7,41619E-001	-7,41712E-001	5,82800E-005	...........
	442	447,441	-7,41268E-001	-7,40112E-001	5,82800E-005	...........
	443	448,451	-7,41057E-001	-7,40712E-001	5,82800E-005	...........
	444	449,461	-7,40891E-001	-7,40612E-001	5,82800E-005	...........
	445	450,471	-7,40688E-001	-7,37762E-001	5,82800E-005	...........
	446	451,481	-7,40300E-001	-7,37212E-001	5,82800E-005	...........
	447	452,491	-7,39591E-001	-7,37762E-001	5,82800E-005	...........
	448	453,501	-7,38755E-001	-7,39262E-001	1,58280E-004	...........
	449	454,511	-7,38160E-001	-7,35212E-001	5,82800E-005	...........
	450	455,521	-7,37756E-001	-7,34212E-001	5,82800E-005	...........
	451	456,531	-7,37097E-001	-7,33362E-001	5,82800E-005	...........
	452	457,541	-7,36014E-001	-7,32612E-001	-4,17200E-005	...........
	453	458,551	-7,34782E-001	-7,32362E-001	1,58280E-004	...........
	454	459,561	-7,33705E-001	-7,31462E-001	5,82800E-005	...........
	455	460,571	-7,32884E-001	-7,31762E-001	5,82800E-005	...........
	456	461,581	-7,32320E-001	-7,32812E-001	5,82800E-005	...........
	457	462,591	-7,32021E-001	-7,30712E-001	1,58280E-004	...........
	458	463,602	-7,31883E-001	-7,31012E-001	1,58280E-004	...........
	459	464,612	-7,31692E-001	-7,30612E-001	5,82800E-005	...........
	460	465,622	-7,31354E-001	-7,29412E-001	1,58280E-004	...........
	461	466,632	-7,30882E-001	-7,28262E-001	1,58280E-004	...........
	462	467,642	-7,30228E-001	-7,26712E-001	5,82800E-005	...........
	463	468,652	-7,29347E-001	-7,26412E-001	5,82800E-005	...........
	464	469,662	-7,28346E-001	-7,27012E-001	1,58280E-004	...........
	465	470,672	-7,27464E-001	-7,25412E-001	5,82800E-005	...........
	466	471,682	-7,26822E-001	-7,25612E-001	5,82800E-005	...........
	467	472,692	-7,26316E-001	-7,24012E-001	1,58280E-004	...........
	468	473,702	-7,25782E-001	-7,23712E-001	5,82800E-005	...........
	469	474,712	-7,25223E-001	-7,27012E-001	-4,17200E-005	...........
	470	475,722	-7,24853E-001	-7,23012E-001	1,58280E-004	...........
	471	476,732	-7,24694E-001	-7,22062E-001	5,82800E-005	...........
	472	477,742	-7,24375E-001	-7,22112E-001	1,58280E-004	...........
	473	478,752	-7,23673E-001	-7,20812E-001	5,82800E-005	...........
	474	479,762	-7,22784E-001	-7,20962E-001	5,82800E-005	...........
	475	480,772	-7,21998E-001	-7,22012E-001	1,58280E-004	...........
	476	481,782	-7,21482E-001	-7,19812E-001	5,82800E-005	...........
	477	482,792	-7,21169E-001	-7,19462E-001	5,82800E-005	...........
	478	483,802	-7,20800E-001	-7,18512E-001	5,82800E-005	...........
	479	484,812	-7,20241E-001	-7,19112E-001	-4,17200E-005	...........
	480	485,822	-7,19599E-001	-7,17012E-001	5,82800E-005	...........
	481	486,832	-7,18962E-001	-7,16612E-001	5,82800E-005	...........
	482	487,842	-7,18323E-001	-7,18512E-001	5,82800E-005	...........
	483	488,852	-7,17817E-001	-7,18012E-001	1,58280E-004	...........
	484	489,862	-7,17611E-001	-7,16412E-001	5,82800E-005	...........
	485	490,872	-7,17546E-001	-7,16012E-001	5,82800E-005	...........
	486	491,882	-7,17297E-001	-7,15212E-001	5,82800E-005	...........
	487	492,892	-7,16781E-001	-7,15362E-001	5,82800E-005	...........
	488	493,902	-7,16243E-001	-7,18662E-001	-4,17200E-005	...........
	489	494,912	-7,16043E-001	-7,15862E-001	5,82800E-005	...........
	490	495,922	-7,16193E-001	-7,13862E-001	5,82800E-005	...........
	491	496,932	-7,16202E-001	-7,14012E-001	5,82800E-005	...........
	492	497,942	-7,15726E-001	-7,14212E-001	5,82800E-005	...........
	493	498,952	-7,14952E-001	-7,11162E-001	5,82800E-005	...........
	494	499,962	-7,14114E-001	-7,11862E-001	5,82800E-005	...........
	495	500,972	-7,13233E-001	-7,10512E-001	5,82800E-005	...........
	496	501,982	-7,12345E-001	-7,10212E-001	5,82800E-005	...........
	497	502,992	-7,11533E-001	-7,09462E-001	-4,17200E-005	...........
	498	504,003	-7,10807E-001	-7,08462E-001	5,82800E-005	...........
	499	505,013	-7,10122E-001	-7,08412E-001	1,58280E-004	...........
	500	506,023	-7,09454E-001	-7,07412E-001	5,82800E-005	...........
	501	507,033	-7,08835E-001	-7,08112E-001	2,58280E-004	...........
	502	508,043	-7,08330E-001	-7,07362E-001	5,82800E-005	...........
	503	509,053	-7,07970E-001	-7,07212E-001	1,58280E-004	...........
	504	510,063	-7,07758E-001	-7,09512E-001	1,58280E-004	...........
	505	511,073	-7,07735E-001	-7,07212E-001	1,58280E-004	...........
	506	512,083	-7,07825E-001	-7,05612E-001	-4,17200E-005	...........
	507	513,093	-7,07708E-001	-7,05812E-001	1,58280E-004	...........
	508	514,103	-7,07215E-001	-7,06062E-001	5,82800E-005	...........
	509	515,113	-7,06576E-001	-7,05012E-001	5,82800E-005	...........
	510	516,123	-7,06039E-001	-7,04612E-001	5,82800E-005	...........
	511	517,133	-7,05592E-001	-7,04012E-001	1,58280E-004	...........
	512	518,143	-7,05115E-001	-7,02712E-001	2,58280E-004	...........
	513	519,153	-7,04549E-001	-7,03212E-001	1,58280E-004	...........
	514	520,163	-7,03983E-001	-7,04812E-001	5,82800E-005	...........
	515	521,173	-7,03694E-001	-7,05912E-001	5,82800E-005	...........
	516	522,183	-7,03856E-001	-7,03062E-001	5,82800E-005	...........
	517	523,193	-7,04173E-001	-7,02212E-001	5,82800E-005	...........
	518	524,203	-7,04148E-001	-7,03112E-001	-4,17200E-005	...........
	519	525,213	-7,03721E-001	-7,03212E-001	5,82800E-005	...........
	520	526,223	-7,03239E-001	-7,01412E-001	-4,17200E-005	...........
	521	527,233	-7,02842E-001	-7,00612E-001	5,82800E-005	...........
	522	528,243	-7,02439E-001	-7,04412E-001	5,82800E-005	...........
	523	529,253	-7,02132E-001	-7,00612E-001	5,82800E-005	...........
	524	530,263	-7,02041E-001	-7,01712E-001	5,82800E-005	...........
	525	531,273	-7,01974E-001	-7,00762E-001	5,82800E-005	...........
	526	532,283	-7,01749E-001	-7,00962E-001	5,82800E-005	...........
	527	533,293	-7,01427E-001	-7,00662E-001	1,58280E-004	...........
	528	534,303	-7,01129E-001	-7,00712E-001	5,82800E-005	...........
	529	535,313	-7,00875E-001	-6,98712E-001	1,58280E-004	...........
	530	536,323	-7,00534E-001	-6,98012E-001	-4,17200E-005	...........
	531	537,333	-6,99979E-001	-6,98812E-001	5,82800E-005	...........
	532	538,343	-6,99372E-001	-7,01012E-001	5,82800E-005	...........
	533	539,353	-6,99056E-001	-6,97412E-001	5,82800E-005	...........
	534	540,363	-6,99044E-001	-6,99212E-001	5,82800E-005	...........
	535	541,373	-6,98998E-001	-6,96562E-001	5,82800E-005	...........
	536	542,383	-6,98686E-001	-6,96912E-001	1,58280E-004	...........
	537	543,393	-6,98197E-001	-6,99862E-001	5,82800E-005	...........
	538	544,404	-6,97847E-001	-6,96712E-001	5,82800E-005	...........
	539	545,414	-6,97762E-001	-6,96362E-001	2,58280E-004	...........
	540	546,424	-6,97630E-001	-6,95162E-001	1,58280E-004	...........
	541	547,434	-6,97293E-001	-7,02012E-001	5,82800E-005	...........
	542	548,444	-6,97174E-001	-6,97112E-001	5,82800E-005	...........
	543	549,454	-6,97519E-001	-6,95812E-001	1,58280E-004	...........
	544	550,464	-6,97894E-001	-7,01212E-001	5,82800E-005	...........
	545	551,474	-6,98117E-001	-7,00962E-001	5,82800E-005	...........
	546	552,484	-6,98562E-001	-6,98512E-001	1,58280E-004	...........
	547	553,494	-6,99142E-001	-6,96612E-001	5,82800E-005	...........
	548	554,504	-6,99180E-001	-6,93962E-001	1,58280E-004	...........
	549	555,514	-6,98341E-001	-6,95612E-001	-4,17200E-005	...........
	550	556,524	-6,97058E-001	-6,96612E-001	5,82800E-005	...........
	551	557,534	-6,96039E-001	-6,93612E-001	5,82800E-005	...........
	552	558,544	-6,95440E-001	-6,91812E-001	5,82800E-005	...........
	553	559,554	-6,94857E-001	-6,94362E-001	5,82800E-005	...........
	554	560,564	-6,94135E-001	-6,92062E-001	5,82800E-005	...........
	555	561,574	-6,93486E-001	-6,91662E-001	2,58280E-004	...........
	556	562,584	-6,92997E-001	-6,93612E-001	5,82800E-005	...........
	557	563,594	-6,92643E-001	-6,90712E-001	5,82800E-005	...........
	558	564,604	-6,92390E-001	-6,91812E-001	5,82800E-005	...........
	559	565,614	-6,92188E-001	-6,94312E-001	5,82800E-005	...........
	560	566,624	-6,92109E-001	-6,89912E-001	5,82800E-005	...........
	561	567,634	-6,92082E-001	-6,89562E-001	1,58280E-004	...........
	562	568,644	-6,91725E-001	-6,88112E-001	1,58280E-004	...........
	563	569,654	-6,91003E-001	-6,95212E-001	5,82800E-005	...........
	564	570,664	-6,90705E-001	-6,98712E-001	5,82800E-005	...........
	565	571,674	-6,91697E-001	-6,97412E-001	1,58280E-004	...........
	566	572,684	-6,93776E-001	-6,97612E-001	1,58280E-004	...........
	567	573,694	-6,95763E-001	-6,93612E-001	5,82800E-005	...........
	568	574,704	-6,96550E-001	-6,88912E-001	5,82800E-005	...........
	569	575,714	-6,95708E-001	-6,88762E-001	-4,17200E-005	...........
	570	576,724	-6,93618E-001	-6,87412E-001	1,58280E-004	...........
	571	577,734	-6,91249E-001	-6,89112E-001	-4,17200E-005	...........
	572	578,744	-6,89478E-001	-6,88162E-001	1,58280E-004	...........
	573	579,754	-6,88568E-001	-6,87612E-001	1,58280E-004	...........
	574	580,764	-6,88200E-001	-6,86612E-001	1,58280E-004	...........
	575	581,774	-6,87898E-001	-6,85712E-001	1,58280E-004	...........
	576	582,784	-6,87424E-001	-6,86412E-001	5,82800E-005	...........
	577	583,794	-6,86993E-001	-6,92512E-001	5,82800E-005	...........
	578	584,805	-6,87189E-001	-6,91912E-001	-4,17200E-005	...........
	579	585,815	-6,88214E-001	-6,86512E-001	1,58280E-004	...........
	580	586,825	-6,89219E-001	-6,85412E-001	5,82800E-005	...........
	581	587,835	-6,89213E-001	-6,88212E-001	-4,17200E-005	...........
	582	588,845	-6,88449E-001	-6,91262E-001	1,58280E-004	...........
	583	589,855	-6,88040E-001	-6,90012E-001	1,58280E-004	...........
	584	590,865	-6,88608E-001	-6,96912E-001	5,82800E-005	...........
	585	591,875	-6,89911E-001	-6,87712E-001	5,82800E-005	...........
	586	592,885	-6,91078E-001	-6,87112E-001	1,58280E-004	...........
	587	593,895	-6,91113E-001	-6,86212E-001	1,58280E-004	...........
	588	594,905	-6,89889E-001	-6,85512E-001	5,82800E-005	...........
	589	595,915	-6,88373E-001	-6,94262E-001	5,82800E-005	...........
	590	596,925	-6,87662E-001	-6,84162E-001	5,82800E-005	...........
	591	597,935	-6,87772E-001	-6,85512E-001	1,58280E-004	...........
	592	598,945	-6,87750E-001	-6,86712E-001	5,82800E-005	...........
	593	599,955	-6,87198E-001	-6,86562E-001	5,82800E-005	...........
	594	600,965	-6,86651E-001	-6,87912E-001	5,82800E-005	...........
	595	601,975	-6,86511E-001	-6,85462E-001	-4,17200E-005	...........
	596	602,985	-6,86574E-001	-6,85062E-001	5,82800E-005	...........
	597	603,995	-6,86533E-001	-6,89612E-001	-4,17200E-005	...........
	598	605,005	-6,86486E-001	-6,85262E-001	1,58280E-004	...........
	599	606,015	-6,86620E-001	-6,87162E-001	5,82800E-005	...........
	600	607,025	-6,86715E-001	-6,83312E-001	1,58280E-004	...........
	601	608,035	-6,86440E-001	-6,84812E-001	1,58280E-004	...........
	602	609,045	-6,85806E-001	-6,84612E-001	1,58280E-004	...........
	603	610,055	-6,85135E-001	-6,84212E-001	5,82800E-005	...........
	604	611,065	-6,84678E-001	-6,83812E-001	-4,17200E-005	...........
	605	612,075	-6,84413E-001	-6,84412E-001	1,58280E-004	...........
	606	613,085	-6,84249E-001	-6,83962E-001	5,82800E-005	...........
	607	614,095	-6,84168E-001	-6,84612E-001	5,82800E-005	...........
	608	615,105	-6,84191E-001	-6,85312E-001	1,58280E-004	...........
	609	616,115	-6,84328E-001	-6,83962E-001	1,58280E-004	...........
	610	617,125	-6,84514E-001	-6,85562E-001	5,82800E-005	...........
	611	618,135	-6,84631E-001	-6,82712E-001	5,82800E-005	...........
	612	619,145	-6,84550E-001	-6,82762E-001	1,58280E-004	...........
	613	620,155	-6,84283E-001	-6,88162E-001	5,82800E-005	...........
	614	621,165	-6,84172E-001	-6,83212E-001	5,82800E-005	...........
	615	622,175	-6,84489E-001	-6,88612E-001	1,58280E-004	...........
	616	623,185	-6,85146E-001	-6,88212E-001	5,82800E-005	...........
	617	624,195	-6,85926E-001	-6,83212E-001	5,82800E-005	...........
	618	625,206	-6,86317E-001	-6,80112E-001	5,82800E-005	...........
	619	626,216	-6,85690E-001	-6,82462E-001	-4,17200E-005	...........
	620	627,226	-6,84185E-001	-6,79312E-001	5,82800E-005	...........
	621	628,236	-6,82565E-001	-6,80162E-001	5,82800E-005	...........
	622	629,246	-6,81384E-001	-6,83462E-001	1,58280E-004	...........
	623	630,256	-6,80860E-001	-6,79512E-001	5,82800E-005	...........
	624	631,266	-6,80863E-001	-6,81112E-001	5,82800E-005	...........
	625	632,276	-6,81068E-001	-6,86012E-001	5,82800E-005	...........
	626	633,286	-6,81594E-001	-6,87662E-001	1,58280E-004	...........
	627	634,296	-6,82825E-001	-6,87212E-001	-4,17200E-005	...........
	628	635,306	-6,84431E-001	-6,81212E-001	5,82800E-005	...........
	629	636,316	-6,85335E-001	-6,80962E-001	5,82800E-005	...........
	630	637,326	-6,84818E-001	-6,78712E-001	1,58280E-004	...........
	631	638,336	-6,83234E-001	-6,80462E-001	5,82800E-005	...........
	632	639,346	-6,81491E-001	-6,77412E-001	5,82800E-005	...........
	633	640,356	-6,80172E-001	-6,79712E-001	1,58280E-004	...........
	634	641,366	-6,79387E-001	-6,79812E-001	1,58280E-004	...........
	635	642,376	-6,79131E-001	-6,80912E-001	5,82800E-005	...........
	636	643,386	-6,79316E-001	-6,78812E-001	1,58280E-004	...........
	637	644,396	-6,79611E-001	-6,78812E-001	5,82800E-005	...........
	638	645,406	-6,79749E-001	-6,83512E-001	5,82800E-005	...........
	639	646,416	-6,79904E-001	-6,79612E-001	1,58280E-004	...........
	640	647,426	-6,80219E-001	-6,78112E-001	5,82800E-005	...........
	641	648,436	-6,80296E-001	-6,77412E-001	1,58280E-004	...........
	642	649,446	-6,79871E-001	-6,82612E-001	1,58280E-004	...........
	643	650,456	-6,79513E-001	-6,83512E-001	5,82800E-005	...........
	644	651,466	-6,79942E-001	-6,83012E-001	1,58280E-004	...........
	645	652,476	-6,81038E-001	-6,81812E-001	1,58280E-004	...........
	646	653,486	-6,81979E-001	-6,79212E-001	5,82800E-005	...........
	647	654,496	-6,82207E-001	-6,84212E-001	-4,17200E-005	...........
	648	655,506	-6,81945E-001	-6,79612E-001	1,58280E-004	...........
	649	656,516	-6,81708E-001	-6,83962E-001	5,82800E-005	...........
	650	657,526	-6,81615E-001	-6,76612E-001	5,82800E-005	...........
	651	658,536	-6,81288E-001	-6,76662E-001	5,82800E-005	...........
	652	659,546	-6,80420E-001	-6,81412E-001	5,82800E-005	...........
	653	660,556	-6,79414E-001	-6,78112E-001	5,82800E-005	...........
	654	661,566	-6,78932E-001	-6,80762E-001	5,82800E-005	...........
	655	662,576	-6,79034E-001	-6,79612E-001	1,58280E-004	...........
	656	663,586	-6,79387E-001	-6,80712E-001	-4,17200E-005	...........
	657	664,596	-6,79736E-001	-6,78962E-001	5,82800E-005	...........
	658	665,607	-6,79899E-001	-6,78612E-001	5,82800E-005	...........
	659	666,617	-6,79794E-001	-6,80412E-001	1,58280E-004	...........
	660	667,627	-6,79603E-001	-6,80462E-001	5,82800E-005	...........
	661	668,637	-6,79582E-001	-6,78762E-001	1,58280E-004	...........
	662	669,647	-6,79782E-001	-6,84812E-001	1,58280E-004	...........
	663	670,657	-6,80237E-001	-6,81062E-001	5,82800E-005	...........
	664	671,667	-6,80903E-001	-6,79812E-001	5,82800E-005	...........
	665	672,677	-6,81385E-001	-6,82112E-001	2,58280E-004	...........
	666	673,687	-6,81438E-001	-6,80912E-001	-4,17200E-005	...........
	667	674,697	-6,81279E-001	-6,79812E-001	5,82800E-005	...........
	668	675,707	-6,81037E-001	-6,78812E-001	1,58280E-004	...........
	669	676,717	-6,80610E-001	-6,79312E-001	5,82800E-005	...........
	670	677,727	-6,80035E-001	-6,78712E-001	5,82800E-005	...........
	671	678,737	-6,79486E-001	-6,77862E-001	1,58280E-004	...........
	672	679,747	-6,79020E-001	-6,77712E-001	1,58280E-004	...........
	673	680,757	-6,78591E-001	-6,78012E-001	1,58280E-004	...........
	674	681,767	-6,78241E-001	-6,78712E-001	1,58280E-004	...........
	675	682,777	-6,78150E-001	-6,81612E-001	5,82800E-005	...........
	676	683,787	-6,78518E-001	-6,81212E-001	5,82800E-005	...........
	677	684,797	-6,79256E-001	-6,77562E-001	5,82800E-005	...........
	678	685,807	-6,79828E-001	-6,79212E-001	5,82800E-005	...........
	679	686,817	-6,79850E-001	-6,80412E-001	5,82800E-005	...........
	680	687,827	-6,79633E-001	-6,81062E-001	5,82800E-005	...........
	681	688,837	-6,79670E-001	-6,80112E-001	-4,17200E-005	...........
	682	689,847	-6,80120E-001	-6,87812E-001	1,58280E-004	...........
	683	690,857	-6,80982E-001	-6,79312E-001	5,82800E-005	...........
	684	691,867	-6,81898E-001	-6,79112E-001	5,82800E-005	...........
	685	692,877	-6,82240E-001	-6,87212E-001	1,58280E-004	...........
	686	693,887	-6,82169E-001	-6,81062E-001	5,82800E-005	...........
	687	694,897	-6,82251E-001	-6,79312E-001	5,82800E-005	...........
	688	695,907	-6,82194E-001	-6,78312E-001	5,82800E-005	...........
	689	696,917	-6,81458E-001	-6,78212E-001	5,82800E-005	...........
	690	697,927	-6,80272E-001	-6,78862E-001	5,82800E-005	...........
	691	698,937	-6,79235E-001	-6,77812E-001	5,82800E-005	...........
	692	699,947	-6,78688E-001	-6,81762E-001	5,82800E-005	...........
	693	700,957	-6,78718E-001	-6,80212E-001	5,82800E-005	...........
	694	701,967	-6,79152E-001	-6,76612E-001	5,82800E-005	...........
	695	702,977	-6,79412E-001	-6,77012E-001	5,82800E-005	...........
	696	703,987	-6,79047E-001	-6,77862E-001	1,58280E-004	...........
	697	704,997	-6,78309E-001	-6,77062E-001	5,82800E-005	...........
	698	706,008	-6,77826E-001	-6,83562E-001	5,82800E-005	...........
	699	707,018	-6,78108E-001	-6,81912E-001	5,82800E-005	...........
	700	708,028	-6,79193E-001	-6,80912E-001	5,82800E-005	...........
	701	709,038	-6,80453E-001	-6,81212E-001	5,82800E-005	...........
	702	710,048	-6,81188E-001	-6,79812E-001	5,82800E-005	...........
	703	711,058	-6,81263E-001	-6,80662E-001	1,58280E-004	...........
	704	712,068	-6,81024E-001	-6,83012E-001	-4,17200E-005	...........
	705	713,078	-6,80893E-001	-6,79012E-001	5,82800E-005	...........
	706	714,088	-6,80894E-001	-6,79112E-001	1,58280E-004	...........
	707	715,098	-6,80698E-001	-6,80012E-001	-4,17200E-005	...........
	708	716,108	-6,80329E-001	-6,83312E-001	1,58280E-004	...........
	709	717,118	-6,80406E-001	-6,88562E-001	5,82800E-005	...........
	710	718,128	-6,81541E-001	-6,87812E-001	5,82800E-005	...........
	711	719,138	-6,83409E-001	-6,78012E-001	5,82800E-005	...........
	712	720,148	-6,84472E-001	-6,74112E-001	1,58280E-004	...........
	713	721,158	-6,83437E-001	-6,79212E-001	5,82800E-005	...........
	714	722,168	-6,80959E-001	-6,77362E-001	5,82800E-005	...........
	715	723,178	-6,78832E-001	-6,79812E-001	5,82800E-005	...........
	716	724,188	-6,78024E-001	-6,81112E-001	5,82800E-005	...........
	717	725,198	-6,78417E-001	-6,83612E-001	2,58280E-004	...........
	718	726,208	-6,79440E-001	-6,76112E-001	5,82800E-005	...........
	719	727,218	-6,80184E-001	-6,77062E-001	5,82800E-005	...........
	720	728,228	-6,80039E-001	-6,83312E-001	5,82800E-005	...........
	721	729,238	-6,79562E-001	-6,80662E-001	5,82800E-005	...........
	722	730,248	-6,79686E-001	-6,82962E-001	5,82800E-005	...........
	723	731,258	-6,80375E-001	-6,77962E-001	5,82800E-005	...........
	724	732,268	-6,80933E-001	-6,83212E-001	1,58280E-004	...........
	725	733,278	-6,81103E-001	-6,81612E-001	1,58280E-004	...........
	726	734,288	-6,81207E-001	-6,81862E-001	-4,17200E-005	...........
	727	735,298	-6,81382E-001	-6,78562E-001	5,82800E-005	...........
	728	736,308	-6,81291E-001	-6,78312E-001	1,58280E-004	...........
	729	737,318	-6,80658E-001	-6,77562E-001	5,82800E-005	...........
	730	738,328	-6,79706E-001	-6,80012E-001	-4,17200E-005	...........
	731	739,338	-6,79092E-001	-6,85712E-001	5,82800E-005	...........
	732	740,348	-6,79387E-001	-6,78412E-001	5,82800E-005	...........
	733	741,358	-6,80347E-001	-6,83312E-001	5,82800E-005	...........
	734	742,368	-6,81140E-001	-6,78562E-001	5,82800E-005	...........
	735	743,378	-6,81312E-001	-6,80562E-001	5,82800E-005	...........
	736	744,388	-6,80988E-001	-6,79562E-001	5,82800E-005	...........
	737	745,398	-6,80461E-001	-6,78012E-001	1,58280E-004	...........
	738	746,409	-6,79852E-001	-6,76112E-001	5,82800E-005	...........
	739	747,419	-6,79040E-001	-6,75812E-001	1,58280E-004	...........
	740	748,429	-6,78049E-001	-6,78012E-001	5,82800E-005	...........
	741	749,439	-6,77224E-001	-6,76212E-001	2,58280E-004	...........
	742	750,449	-6,76872E-001	-6,79212E-001	1,58280E-004	...........
	743	751,459	-6,77009E-001	-6,78762E-001	2,58280E-004	...........
	744	752,469	-6,77462E-001	-6,77212E-001	5,82800E-005	...........
	745	753,479	-6,77870E-001	-6,75962E-001	5,82800E-005	...........
	746	754,489	-6,77874E-001	-6,77612E-001	5,82800E-005	...........
	747	755,499	-6,77621E-001	-6,81612E-001	5,82800E-005	...........
	748	756,509	-6,77703E-001	-6,79212E-001	-4,17200E-005	...........
	749	757,519	-6,78321E-001	-6,78412E-001	5,82800E-005	...........
	750	758,529	-6,78966E-001	-6,78812E-001	5,82800E-005	...........
	751	759,539	-6,79191E-001	-6,79112E-001	1,58280E-004	...........
	752	760,549	-6,79100E-001	-6,78812E-001	5,82800E-005	...........
	753	761,559	-6,78912E-001	-6,75612E-001	1,58280E-004	...........
	754	762,569	-6,78521E-001	-6,75412E-001	-4,17200E-005	...........
	755	763,579	-6,77764E-001	-6,75812E-001	1,58280E-004	...........
	756	764,589	-6,76853E-001	-6,76312E-001	5,82800E-005	...........
	757	765,599	-6,76274E-001	-6,80012E-001	5,82800E-005	...........
	758	766,609	-6,76382E-001	-6,78012E-001	5,82800E-005	...........
	759	767,619	-6,77044E-001	-6,77112E-001	1,58280E-004	...........
	760	768,629	-6,77719E-001	-6,79412E-001	1,58280E-004	...........
	761	769,639	-6,78032E-001	-6,75162E-001	5,82800E-005	...........
	762	770,649	-6,77913E-001	-6,75262E-001	5,82800E-005	...........
	763	771,659	-6,77459E-001	-6,80912E-001	5,82800E-005	...........
	764	772,669	-6,77165E-001	-6,79212E-001	5,82800E-005	...........
	765	773,679	-6,77426E-001	-6,73862E-001	5,82800E-005	...........
	766	774,689	-6,77728E-001	-6,76312E-001	5,82800E-005	...........
	767	775,699	-6,77437E-001	-6,76812E-001	-4,17200E-005	...........
	768	776,709	-6,76832E-001	-6,77312E-001	1,58280E-004	...........
	769	777,719	-6,76589E-001	-6,80412E-001	-4,17200E-005	...........
	770	778,729	-6,76974E-001	-6,78212E-001	5,82800E-005	...........
	771	779,739	-6,77717E-001	-6,77812E-001	1,58280E-004	...........
	772	780,749	-6,78268E-001	-6,76812E-001	1,58280E-004	...........
	773	781,759	-6,78346E-001	-6,80262E-001	1,58280E-004	...........
	774	782,769	-6,78205E-001	-6,76362E-001	5,82800E-005	...........
	775	783,779	-6,78086E-001	-6,76612E-001	-4,17200E-005	...........
	776	784,789	-6,77900E-001	-6,79012E-001	5,82800E-005	...........
	777	785,799	-6,77680E-001	-6,77512E-001	5,82800E-005	...........
	778	786,81	-6,77610E-001	-6,76612E-001	5,82800E-005	...........
	779	787,82	-6,77618E-001	-6,78262E-001	1,58280E-004	...........
	780	788,83	-6,77585E-001	-6,77862E-001	1,58280E-004	...........
	781	789,84	-6,77592E-001	-6,77712E-001	1,58280E-004	...........
	782	790,85	-6,77700E-001	-6,79012E-001	5,82800E-005	...........
	783	791,86	-6,77979E-001	-6,83012E-001	1,58280E-004	...........
	784	792,87	-6,78600E-001	-6,78962E-001	5,82800E-005	...........
	785	793,88	-6,79431E-001	-6,79312E-001	5,82800E-005	...........
	786	794,89	-6,80002E-001	-6,81812E-001	5,82800E-005	...........
	787	795,9	-6,80114E-001	-6,75012E-001	5,82800E-005	...........
	788	796,91	-6,79731E-001	-6,75412E-001	5,82800E-005	...........
	789	797,92	-6,78727E-001	-6,75112E-001	5,82800E-005	...........
	790	798,93	-6,77337E-001	-6,75012E-001	5,82800E-005	...........
	791	799,94	-6,76099E-001	-6,73712E-001	5,82800E-005	...........
	792	800,95	-6,75263E-001	-6,75212E-001	5,82800E-005	...........
	793	801,96	-6,74837E-001	-6,76912E-001	5,82800E-005	...........
	794	802,97	-6,74850E-001	-6,75062E-001	2,58280E-004	...........
	795	803,98	-6,75241E-001	-6,78912E-001	5,82800E-005	...........
	796	804,99	-6,75837E-001	-6,76612E-001	1,58280E-004	...........
	797	806	-6,76444E-001	-6,75662E-001	5,82800E-005	...........
	798	807,01	-6,76757E-001	-6,75012E-001	1,58280E-004	...........
	799	808,02	-6,76627E-001	-6,78012E-001	2,58280E-004	...........
	800	809,03	-6,76316E-001	-6,73612E-001	2,58280E-004	...........
	801	810,04	-6,76092E-001	-6,77762E-001	1,58280E-004	...........
	802	811,05	-6,76018E-001	-6,77262E-001	1,58280E-004	...........
	803	812,06	-6,76175E-001	-6,76912E-001	5,82800E-005	...........
	804	813,07	-6,76480E-001	-6,74412E-001	5,82800E-005	...........
	805	814,08	-6,76553E-001	-6,75012E-001	1,58280E-004	...........
	806	815,09	-6,76191E-001	-6,74812E-001	1,58280E-004	...........
	807	816,1	-6,75605E-001	-6,74212E-001	-4,17200E-005	...........
	808	817,11	-6,75069E-001	-6,73662E-001	5,82800E-005	...........
	809	818,12	-6,74732E-001	-6,78912E-001	5,82800E-005	...........
	810	819,13	-6,74784E-001	-6,74262E-001	5,82800E-005	...........
	811	820,14	-6,75180E-001	-6,74412E-001	5,82800E-005	...........
	812	821,15	-6,75423E-001	-6,73512E-001	5,82800E-005	...........
	813	822,16	-6,75155E-001	-6,73112E-001	-4,17200E-005	...........
	814	823,17	-6,74526E-001	-6,72612E-001	1,58280E-004	...........
	815	824,18	-6,73913E-001	-6,76712E-001	1,58280E-004	...........
	816	825,19	-6,73760E-001	-6,77262E-001	5,82800E-005	...........
	817	826,2	-6,74300E-001	-6,75262E-001	1,58280E-004	...........
	818	827,211	-6,75163E-001	-6,75262E-001	1,58280E-004	...........
	819	828,221	-6,75788E-001	-6,79012E-001	1,58280E-004	...........
	820	829,231	-6,76111E-001	-6,73662E-001	1,58280E-004	...........
	821	830,241	-6,76291E-001	-6,77812E-001	-4,17200E-005	...........
	822	831,251	-6,76295E-001	-6,73562E-001	5,82800E-005	...........
	823	832,261	-6,76041E-001	-6,73612E-001	5,82800E-005	...........
	824	833,271	-6,75549E-001	-6,76612E-001	5,82800E-005	...........
	825	834,281	-6,75108E-001	-6,76262E-001	5,82800E-005	...........
	826	835,291	-6,75085E-001	-6,75612E-001	1,58280E-004	...........
	827	836,301	-6,75375E-001	-6,74012E-001	1,58280E-004	...........
	828	837,311	-6,75530E-001	-6,75512E-001	5,82800E-005	...........
	829	838,321	-6,75475E-001	-6,79112E-001	2,58280E-004	...........
	830	839,331	-6,75530E-001	-6,71612E-001	-4,17200E-005	...........
	831	840,341	-6,75642E-001	-6,75112E-001	1,58280E-004	...........
	832	841,351	-6,75375E-001	-6,71812E-001	5,82800E-005	...........
	833	842,361	-6,74785E-001	-6,79412E-001	-4,17200E-005	...........
	834	843,371	-6,74548E-001	-6,76662E-001	5,82800E-005	...........
	835	844,381	-6,75007E-001	-6,73012E-001	1,58280E-004	...........
	836	845,391	-6,75542E-001	-6,73412E-001	1,58280E-004	...........
	837	846,401	-6,75479E-001	-6,77612E-001	1,58280E-004	...........
	838	847,411	-6,75175E-001	-6,77612E-001	1,58280E-004	...........
	839	848,421	-6,75334E-001	-6,75112E-001	5,82800E-005	...........
	840	849,431	-6,75868E-001	-6,76762E-001	-4,17200E-005	...........
	841	850,441	-6,76188E-001	-6,72562E-001	1,58280E-004	...........
	842	851,451	-6,75992E-001	-6,75712E-001	1,58280E-004	...........
	843	852,461	-6,75435E-001	-6,73412E-001	5,82800E-005	...........
	844	853,471	-6,74932E-001	-6,78262E-001	5,82800E-005	...........
	845	854,481	-6,74942E-001	-6,79312E-001	1,58280E-004	...........
	846	855,491	-6,75598E-001	-6,73512E-001	1,58280E-004	...........
	847	856,501	-6,76286E-001	-6,72762E-001	1,58280E-004	...........
	848	857,511	-6,76181E-001	-6,74812E-001	5,82800E-005	...........
	849	858,521	-6,75365E-001	-6,74562E-001	5,82800E-005	...........
	850	859,531	-6,74645E-001	-6,76112E-001	1,58280E-004	...........
	851	860,541	-6,74473E-001	-6,73712E-001	5,82800E-005	...........
	852	861,551	-6,74640E-001	-6,75312E-001	5,82800E-005	...........
	853	862,561	-6,74813E-001	-6,75812E-001	5,82800E-005	...........
	854	863,571	-6,74982E-001	-6,76812E-001	-4,17200E-005	...........
	855	864,581	-6,75298E-001	-6,76012E-001	1,58280E-004	...........
	856	865,591	-6,75750E-001	-6,77812E-001	1,58280E-004	...........
	857	866,601	-6,76162E-001	-6,73812E-001	1,58280E-004	...........
	858	867,612	-6,76232E-001	-6,71812E-001	5,82800E-005	...........
	859	868,622	-6,75693E-001	-6,75112E-001	5,82800E-005	...........
	860	869,632	-6,74842E-001	-6,76312E-001	2,58280E-004	...........
	861	870,642	-6,74428E-001	-6,76512E-001	-4,17200E-005	...........
	862	871,652	-6,74757E-001	-6,76412E-001	5,82800E-005	...........
	863	872,662	-6,75435E-001	-6,75512E-001	1,58280E-004	...........
	864	873,672	-6,75902E-001	-6,74012E-001	1,58280E-004	...........
	865	874,682	-6,75916E-001	-6,76812E-001	5,82800E-005	...........
	866	875,692	-6,75669E-001	-6,74612E-001	1,58280E-004	...........
	867	876,702	-6,75432E-001	-6,73412E-001	5,82800E-005	...........
	868	877,712	-6,75152E-001	-6,73812E-001	5,82800E-005	...........
	869	878,722	-6,74753E-001	-6,76212E-001	5,82800E-005	...........
	870	879,732	-6,74498E-001	-6,75112E-001	2,58280E-004	...........
	871	880,742	-6,74616E-001	-6,75512E-001	-4,17200E-005	...........
	872	881,752	-6,74976E-001	-6,76612E-001	5,82800E-005	...........
	873	882,762	-6,75292E-001	-6,71812E-001	5,82800E-005	...........
	874	883,772	-6,75247E-001	-6,72812E-001	1,58280E-004	...........
	875	884,782	-6,75001E-001	-6,90312E-001	5,82800E-005	...........
	876	885,792	-6,75511E-001	-6,70412E-001	5,82800E-005	...........
	877	886,802	-6,76793E-001	-6,73412E-001	5,82800E-005	...........
	878	887,812	-6,77276E-001	-6,74812E-001	1,58280E-004	...........
	879	888,822	-6,76320E-001	-6,71912E-001	5,82800E-005	...........
	880	889,832	-6,74922E-001	-6,74762E-001	5,82800E-005	...........
	881	890,842	-6,74193E-001	-6,85512E-001	1,58280E-004	...........
	882	891,852	-6,74793E-001	-6,74162E-001	5,82800E-005	...........
	883	892,862	-6,76272E-001	-6,73412E-001	5,82800E-005	...........
	884	893,872	-6,77045E-001	-6,72562E-001	1,58280E-004	...........
	885	894,882	-6,76327E-001	-6,73412E-001	5,82800E-005	...........
	886	895,892	-6,74884E-001	-6,72212E-001	5,82800E-005	...........
	887	896,902	-6,73650E-001	-6,71412E-001	1,58280E-004	...........
	888	897,912	-6,72833E-001	-6,71762E-001	5,82800E-005	...........
	889	898,922	-6,72339E-001	-6,74662E-001	5,82800E-005	...........
	890	899,932	-6,72264E-001	-6,74012E-001	5,82800E-005	...........
	891	900,942	-6,72742E-001	-6,77712E-001	5,82800E-005	...........
	892	901,952	-6,73583E-001	-6,70012E-001	5,82800E-005	...........
	893	902,962	-6,74154E-001	-6,72212E-001	5,82800E-005	...........
	894	903,972	-6,73907E-001	-6,71162E-001	5,82800E-005	...........
	895	904,982	-6,73088E-001	-6,74062E-001	1,58280E-004	...........
	896	905,992	-6,72440E-001	-6,72112E-001	5,82800E-005	...........
	897	907,002	-6,72348E-001	-6,75012E-001	5,82800E-005	...........
	898	908,013	-6,72707E-001	-6,74312E-001	1,58280E-004	...........
	899	909,023	-6,73347E-001	-6,77612E-001	5,82800E-005	...........
	900	910,033	-6,74174E-001	-6,74712E-001	1,58280E-004	...........
	901	911,043	-6,74959E-001	-6,74262E-001	5,82800E-005	...........
	902	912,053	-6,75318E-001	-6,73612E-001	5,82800E-005	...........
	903	913,063	-6,75140E-001	-6,75312E-001	5,82800E-005	...........
	904	914,073	-6,74737E-001	-6,73162E-001	5,82800E-005	...........
	905	915,083	-6,74421E-001	-6,74612E-001	1,58280E-004	...........
	906	916,093	-6,74453E-001	-6,85312E-001	5,82800E-005	...........
	907	917,103	-6,75423E-001	-6,82212E-001	1,58280E-004	...........
	908	918,113	-6,77395E-001	-6,72962E-001	1,58280E-004	...........
	909	919,123	-6,78936E-001	-6,74412E-001	5,82800E-005	...........
	910	920,133	-6,78643E-001	-6,72812E-001	5,82800E-005	...........
	911	921,143	-6,76878E-001	-6,72012E-001	-4,17200E-005	...........
	912	922,153	-6,74953E-001	-6,75612E-001	1,58280E-004	...........
	913	923,163	-6,73828E-001	-6,76312E-001	5,82800E-005	...........
	914	924,173	-6,73725E-001	-6,71812E-001	1,58280E-004	...........
	915	925,183	-6,74116E-001	-6,76212E-001	5,82800E-005	...........
	916	926,193	-6,74411E-001	-6,75012E-001	5,82800E-005	...........
	917	927,203	-6,74597E-001	-6,75012E-001	5,82800E-005	...........
	918	928,213	-6,74852E-001	-6,77212E-001	5,82800E-005	...........
	919	929,223	-6,75231E-001	-6,76812E-001	5,82800E-005	...........
	920	930,233	-6,75703E-001	-6,74762E-001	-4,17200E-005	...........
	921	931,243	-6,75994E-001	-6,73212E-001	1,58280E-004	...........
	922	932,253	-6,75818E-001	-6,76612E-001	1,58280E-004	...........
	923	933,263	-6,75397E-001	-6,75862E-001	1,58280E-004	...........
	924	934,273	-6,75175E-001	-6,73212E-001	2,58280E-004	...........
	925	935,283	-6,75113E-001	-6,74412E-001	-4,17200E-005	...........
	926	936,293	-6,74889E-001	-6,73412E-001	5,82800E-005	...........
	927	937,303	-6,74503E-001	-6,74762E-001	1,58280E-004	...........
	928	938,313	-6,74217E-001	-6,75012E-001	5,82800E-005	...........
	929	939,323	-6,74171E-001	-6,72962E-001	-4,17200E-005	...........
	930	940,333	-6,74273E-001	-6,77012E-001	1,58280E-004	...........
	931	941,343	-6,74460E-001	-6,74812E-001	1,58280E-004	...........
	932	942,353	-6,74747E-001	-6,74212E-001	1,58280E-004	...........
	933	943,363	-6,74974E-001	-6,75012E-001	5,82800E-005	...........
	934	944,373	-6,75071E-001	-6,79262E-001	1,58280E-004	...........
	935	945,383	-6,75305E-001	-6,73612E-001	5,82800E-005	...........
	936	946,393	-6,75684E-001	-6,74812E-001	5,82800E-005	...........
	937	947,403	-6,75805E-001	-6,76212E-001	5,82800E-005	...........
	938	948,414	-6,75723E-001	-6,80812E-001	1,58280E-004	...........
	939	949,424	-6,75938E-001	-6,72112E-001	1,58280E-004	...........
	940	950,43	-6,76281E-001	-6,73562E-001	2,58280E-004	...........
	941	951,44	-6,76042E-001	-6,74512E-001	5,82800E-005	...........
	942	952,45	-6,75214E-001	-6,73412E-001	5,82800E-005	...........
	943	953,46	-6,74427E-001	-6,74412E-001	1,58280E-004	...........
	944	954,47	-6,74036E-001	-6,74662E-001	5,82800E-005	...........
	945	955,48	-6,74010E-001	-6,74712E-001	5,82800E-005	...........
	946	956,49	-6,74198E-001	-6,74512E-001	5,82800E-005	...........
	947	957,5	-6,74431E-001	-6,75312E-001	1,58280E-004	...........
	948	958,51	-6,74667E-001	-6,76912E-001	-4,17200E-005	...........
	949	959,52	-6,74940E-001	-6,72162E-001	1,58280E-004	...........
	950	960,53	-6,75061E-001	-6,74062E-001	1,58280E-004	...........
	951	961,54	-6,74802E-001	-6,74012E-001	1,58280E-004	...........
	952	962,55	-6,74307E-001	-6,72362E-001	5,82800E-005	...........
	953	963,56	-6,73806E-001	-6,71412E-001	-4,17200E-005	...........
	954	964,57	-6,73296E-001	-6,73612E-001	5,82800E-005	...........
	955	965,58	-6,72842E-001	-6,72362E-001	1,58280E-004	...........
	956	966,59	-6,72628E-001	-6,73412E-001	1,58280E-004	...........
	957	967,6	-6,72723E-001	-6,75812E-001	-4,17200E-005	...........
	958	968,61	-6,73191E-001	-6,77562E-001	5,82800E-005	...........
	959	969,62	-6,74166E-001	-6,79812E-001	5,82800E-005	...........
	960	970,63	-6,75508E-001	-6,73862E-001	2,58280E-004	...........
	961	971,64	-6,76605E-001	-6,77562E-001	5,82800E-005	...........
	962	972,65	-6,76868E-001	-6,70412E-001	5,82800E-005	...........
	963	973,66	-6,76196E-001	-6,72912E-001	1,58280E-004	...........
	964	974,67	-6,74947E-001	-6,73912E-001	1,58280E-004	...........
	965	975,68	-6,73823E-001	-6,74812E-001	1,58280E-004	...........
	966	976,69	-6,73413E-001	-6,74812E-001	1,58280E-004	...........
	967	977,7	-6,73638E-001	-6,72712E-001	1,58280E-004	...........
	968	978,71	-6,73917E-001	-6,72012E-001	5,82800E-005	...........
	969	979,72	-6,73861E-001	-6,76412E-001	1,58280E-004	...........
	970	980,73	-6,73696E-001	-6,73212E-001	1,58280E-004	...........
	971	981,74	-6,73734E-001	-6,72562E-001	5,82800E-005	...........
	972	982,75	-6,73767E-001	-6,72012E-001	1,58280E-004	...........
	973	983,76	-6,73530E-001	-6,74812E-001	1,58280E-004	...........
	974	984,77	-6,73238E-001	-6,72812E-001	1,58280E-004	...........
	975	985,78	-6,73175E-001	-6,73412E-001	-4,17200E-005	...........
	976	986,79	-6,73378E-001	-6,79212E-001	1,58280E-004	...........
	977	987,8	-6,73909E-001	-6,72962E-001	5,82800E-005	...........
	978	988,81	-6,74617E-001	-6,73912E-001	5,82800E-005	...........
	979	989,82	-6,74915E-001	-6,71412E-001	5,82800E-005	...........
	980	990,83	-6,74530E-001	-6,75662E-001	5,82800E-005	...........
	981	991,84	-6,73959E-001	-6,74512E-001	5,82800E-005	...........
	982	992,85	-6,73733E-001	-6,71312E-001	5,82800E-005	...........
	983	993,86	-6,73713E-001	-6,74012E-001	1,58280E-004	...........
	984	994,87	-6,73560E-001	-6,73112E-001	5,82800E-005	...........
	985	995,88	-6,73356E-001	-6,74062E-001	5,82800E-005	...........
	986	996,89	-6,73285E-001	-6,71812E-001	5,82800E-005	...........
	987	997,9	-6,73340E-001	-6,77712E-001	5,82800E-005	...........
	988	998,91	-6,73561E-001	-6,72162E-001	5,82800E-005	...........
	989	999,92	-6,73865E-001	-6,71412E-001	1,58280E-004	...........
	990	1000,93	-6,73800E-001	-6,70962E-001	5,82800E-005	...........
	991	1001,94	-6,73187E-001	-6,73912E-001	-4,17200E-005	...........
	992	1002,95	-6,72647E-001	-6,78612E-001	5,82800E-005	...........
	993	1003,96	-6,73002E-001	-6,76912E-001	1,58280E-004	...........
	994	1004,97	-6,74195E-001	-6,71612E-001	1,58280E-004	...........
	995	1005,98	-6,75159E-001	-6,73662E-001	5,82800E-005	...........
	996	1006,99	-6,75122E-001	-6,74212E-001	5,82800E-005	...........
	997	1008,01	-6,74483E-001	-6,73712E-001	5,82800E-005	...........
	998	1009,02	-6,73920E-001	-6,71162E-001	5,82800E-005	...........
	999	1010,03	-6,73457E-001	-6,70512E-001	5,82800E-005	...........
	1000	1011,04	-6,72951E-001	-6,79012E-001	1,58280E-004	...........
	1001	1012,05	-6,72793E-001	-6,71512E-001	5,82800E-005	...........
	1002	1013,06	-6,73240E-001	-6,75312E-001	5,82800E-005	...........
	1003	1014,07	-6,73830E-001	-6,73462E-001	5,82800E-005	...........
	1004	1015,08	-6,74128E-001	-6,74512E-001	1,58280E-004	...........
	1005	1016,09	-6,74189E-001	-6,74212E-001	5,82800E-005	...........
	1006	1017,1	-6,74177E-001	-6,73412E-001	5,82800E-005	...........
	1007	1018,11	-6,74111E-001	-6,73412E-001	1,58280E-004	...........
	1008	1019,12	-6,73930E-001	-6,72362E-001	5,82800E-005	...........
	1009	1020,13	-6,73781E-001	-6,81512E-001	5,82800E-005	...........
	1010	1021,14	-6,74146E-001	-6,74762E-001	5,82800E-005	...........
	1011	1022,15	-6,75028E-001	-6,71012E-001	5,82800E-005	...........
	1012	1023,16	-6,75490E-001	-6,73762E-001	5,82800E-005	...........
	1013	1024,17	-6,75099E-001	-6,80362E-001	5,82800E-005	...........
	1014	1025,18	-6,74658E-001	-6,68612E-001	5,82800E-005	...........
