EXPLAIN
TAG	CORPOT
TITLE	LABEL	Mats	Test Identifier
DATE	LABEL	15.2.2023	Date
TIME	LABEL	14.18.07	Time
NOTES	NOTES	1	Notes...
	
PSTAT	PSTAT	PCI4G750-47063	Potentiostat
TIMEOUT	QUANT	3,00000E+002	Total Time (s)
SAMPLETIME	QUANT	1,00000E+000	Sample Period (s)
STABILITY	QUANT	0,00000E+000	Stability (mV/s)
AREA	QUANT	1,00000E+000	Sample Area (cm^2)
SEQUENCER	TOGGLE	TRUE	Run as Sequence
PSTATMODEL	IQUANT	37	Pstat Model
PSTATSECTION	LABEL	PCI4G750-47063	Pstat Section
PSTATSERIALNO	LABEL	47063	Pstat Serial Number
CTRLMODE	IQUANT	1	Control Mode
IESTAB	IQUANT	2	I/E Stability
CASPEED	IQUANT	2	Control Amp Speed
CONVENTION	IQUANT	1	Current Convention
ICHRANGE	IQUANT	2	Ich Range
ICHRANGEMODE	TOGGLE	T	Ich Auto Range
ICHOFFSETENABLE	TOGGLE	F	Ich Offset Enable
ICHOFFSET	QUANT	0	Ich Offset (V)
ICHFILTER	IQUANT	3	Ich Filter
VCHRANGE	IQUANT	3	Vch Range
VCHRANGEMODE	TOGGLE	T	Vch Auto Range
VCHOFFSETENABLE	TOGGLE	F	Vch Offset Enable
VCHOFFSET	QUANT	0	Vch Offset (V)
VCHFILTER	IQUANT	3	Vch Filter
ACHRANGE	IQUANT	0	Ach Range
IERANGELOWERLIMIT	IQUANT	3	I/E Range Lower Limit
IERANGEMODE	TOGGLE	F	I/E AutoRange
IERANGE	IQUANT	10	I/E Range
POSFEEDENABLE	TOGGLE	F	Positive Feedback IR Comp
POSFEEDRESISTANCE	QUANT	0	Positive Feedback Resistance (ohm)
DCCALDATE	LABEL	15.11.2022	DC Calibration Date
ACCALDATE	LABEL	15.11.2022	AC Calibration Date
FRAMEWORKVERSION	QUANT	6,33	Framework Version
CURVE	TABLE	297
	Pt	T	Vf	Vm	Ach	Over
	#	s	V vs. Ref.	V	V	bits
	0	1,01003	-6,60962E-001	-6,60962E-001	2,58280E-004	...........
	1	2,02005	-6,60932E-001	-6,59362E-001	3,58280E-004	...........
	2	3,03008	-6,60806E-001	-6,61062E-001	2,58280E-004	...........
	3	4,0401	-6,60628E-001	-6,61412E-001	2,58280E-004	...........
	4	5,05013	-6,60574E-001	-6,60412E-001	3,58280E-004	...........
	5	6,06015	-6,60663E-001	-6,60212E-001	2,58280E-004	...........
	6	7,07018	-6,60701E-001	-6,60012E-001	2,58280E-004	...........
	7	8,0802	-6,60586E-001	-6,60612E-001	2,58280E-004	...........
	8	9,09023	-6,60449E-001	-6,61612E-001	3,58280E-004	...........
	9	10,1003	-6,60506E-001	-6,62362E-001	2,58280E-004	...........
	10	11,1103	-6,60803E-001	-6,59612E-001	2,58280E-004	...........
	11	12,1203	-6,61090E-001	-6,61062E-001	3,58280E-004	...........
	12	13,1303	-6,61176E-001	-6,63812E-001	3,58280E-004	...........
	13	14,1404	-6,61281E-001	-6,61612E-001	3,58280E-004	...........
	14	15,1504	-6,61606E-001	-6,61962E-001	3,58280E-004	...........
	15	16,1604	-6,61917E-001	-6,60412E-001	2,58280E-004	...........
	16	17,1704	-6,61926E-001	-6,61862E-001	4,58280E-004	...........
	17	18,1805	-6,61684E-001	-6,60712E-001	3,58280E-004	...........
	18	19,1905	-6,61411E-001	-6,61012E-001	2,58280E-004	...........
	19	20,2005	-6,61175E-001	-6,59212E-001	3,58280E-004	...........
	20	21,2105	-6,60899E-001	-6,60912E-001	2,58280E-004	...........
	21	22,2206	-6,60600E-001	-6,60612E-001	2,58280E-004	...........
	22	23,2306	-6,60441E-001	-6,61362E-001	3,58280E-004	...........
	23	24,2406	-6,60503E-001	-6,60312E-001	3,58280E-004	...........
	24	25,2506	-6,60668E-001	-6,61362E-001	2,58280E-004	...........
	25	26,2607	-6,60816E-001	-6,61412E-001	2,58280E-004	...........
	26	27,2707	-6,60956E-001	-6,61362E-001	2,58280E-004	...........
	27	28,2807	-6,61106E-001	-6,60812E-001	2,58280E-004	...........
	28	29,2907	-6,61176E-001	-6,60012E-001	3,58280E-004	...........
	29	30,3008	-6,61075E-001	-6,60962E-001	2,58280E-004	...........
	30	31,3108	-6,60879E-001	-6,61412E-001	2,58280E-004	...........
	31	32,3208	-6,60808E-001	-6,62312E-001	3,58280E-004	...........
	32	33,3308	-6,61018E-001	-6,62662E-001	3,58280E-004	...........
	33	34,3409	-6,61432E-001	-6,61012E-001	2,58280E-004	...........
	34	35,3509	-6,61788E-001	-6,61862E-001	2,58280E-004	...........
	35	36,3609	-6,61922E-001	-6,62962E-001	2,58280E-004	...........
	36	37,3709	-6,61960E-001	-6,61912E-001	3,58280E-004	...........
	37	38,381	-6,62056E-001	-6,62212E-001	2,58280E-004	...........
	38	39,391	-6,62139E-001	-6,60812E-001	2,58280E-004	...........
	39	40,401	-6,62072E-001	-6,62162E-001	2,58280E-004	...........
	40	41,411	-6,61872E-001	-6,60712E-001	1,58280E-004	...........
	41	42,4211	-6,61670E-001	-6,62662E-001	3,58280E-004	...........
	42	43,4311	-6,61569E-001	-6,60762E-001	3,58280E-004	...........
	43	44,4411	-6,61545E-001	-6,61012E-001	3,58280E-004	...........
	44	45,4511	-6,61446E-001	-6,59612E-001	1,58280E-004	...........
	45	46,4612	-6,61196E-001	-6,62312E-001	2,58280E-004	...........
	46	47,4712	-6,60987E-001	-6,62212E-001	2,58280E-004	...........
	47	48,4812	-6,61088E-001	-6,62412E-001	1,58280E-004	...........
	48	49,4912	-6,61473E-001	-6,61712E-001	2,58280E-004	...........
	49	50,5013	-6,61849E-001	-6,61812E-001	1,58280E-004	...........
	50	51,5113	-6,62006E-001	-6,61612E-001	2,58280E-004	...........
	51	52,5213	-6,61983E-001	-6,62812E-001	3,58280E-004	...........
	52	53,5313	-6,61970E-001	-6,62612E-001	2,58280E-004	...........
	53	54,5414	-6,62097E-001	-6,62562E-001	3,58280E-004	...........
	54	55,5514	-6,62312E-001	-6,62612E-001	2,58280E-004	...........
	55	56,5614	-6,62488E-001	-6,62562E-001	2,58280E-004	...........
	56	57,5714	-6,62581E-001	-6,62912E-001	3,58280E-004	...........
	57	58,5815	-6,62624E-001	-6,62262E-001	1,58280E-004	...........
	58	59,5915	-6,62605E-001	-6,61012E-001	3,58280E-004	...........
	59	60,6015	-6,62431E-001	-6,61512E-001	3,58280E-004	...........
	60	61,6115	-6,62122E-001	-6,62912E-001	2,58280E-004	...........
	61	62,6216	-6,61912E-001	-6,62612E-001	2,58280E-004	...........
	62	63,6316	-6,62005E-001	-6,63612E-001	2,58280E-004	...........
	63	64,6416	-6,62335E-001	-6,62312E-001	2,58280E-004	...........
	64	65,6516	-6,62652E-001	-6,62062E-001	3,58280E-004	...........
	65	66,6617	-6,62765E-001	-6,63462E-001	2,58280E-004	...........
	66	67,6717	-6,62721E-001	-6,62112E-001	2,58280E-004	...........
	67	68,6817	-6,62644E-001	-6,61412E-001	2,58280E-004	...........
	68	69,6917	-6,62486E-001	-6,61312E-001	2,58280E-004	...........
	69	70,7018	-6,62226E-001	-6,64062E-001	3,58280E-004	...........
	70	71,7118	-6,62108E-001	-6,63162E-001	2,58280E-004	...........
	71	72,7218	-6,62319E-001	-6,62212E-001	2,58280E-004	...........
	72	73,7318	-6,62646E-001	-6,62662E-001	2,58280E-004	...........
	73	74,7419	-6,62798E-001	-6,63012E-001	2,58280E-004	...........
	74	75,7519	-6,62783E-001	-6,62362E-001	2,58280E-004	...........
	75	76,7619	-6,62718E-001	-6,62012E-001	2,58280E-004	...........
	76	77,7719	-6,62611E-001	-6,62312E-001	2,58280E-004	...........
	77	78,782	-6,62441E-001	-6,61412E-001	2,58280E-004	...........
	78	79,792	-6,62250E-001	-6,62712E-001	3,58280E-004	...........
	79	80,802	-6,62129E-001	-6,62812E-001	3,58280E-004	...........
	80	81,812	-6,62175E-001	-6,62812E-001	2,58280E-004	...........
	81	82,8221	-6,62384E-001	-6,63362E-001	2,58280E-004	...........
	82	83,8321	-6,62634E-001	-6,62012E-001	4,58280E-004	...........
	83	84,8421	-6,62780E-001	-6,62612E-001	2,58280E-004	...........
	84	85,8521	-6,62774E-001	-6,63362E-001	2,58280E-004	...........
	85	86,8622	-6,62759E-001	-6,64112E-001	2,58280E-004	...........
	86	87,8722	-6,62921E-001	-6,63712E-001	3,58280E-004	...........
	87	88,8822	-6,63238E-001	-6,63412E-001	2,58280E-004	...........
	88	89,8922	-6,63520E-001	-6,63862E-001	2,58280E-004	...........
	89	90,9023	-6,63660E-001	-6,63812E-001	3,58280E-004	...........
	90	91,9123	-6,63698E-001	-6,63062E-001	3,58280E-004	...........
	91	92,9223	-6,63660E-001	-6,62962E-001	4,58280E-004	...........
	92	93,9323	-6,63528E-001	-6,63512E-001	4,58280E-004	...........
	93	94,9424	-6,63356E-001	-6,62612E-001	3,58280E-004	...........
	94	95,952	-6,63215E-001	-6,63362E-001	4,58280E-004	...........
	95	96,962	-6,63133E-001	-6,63412E-001	3,58280E-004	...........
	96	97,972	-6,63130E-001	-6,63412E-001	2,58280E-004	...........
	97	98,982	-6,63218E-001	-6,64062E-001	2,58280E-004	...........
	98	99,992	-6,63378E-001	-6,63912E-001	2,58280E-004	...........
	99	101,003	-6,63571E-001	-6,63612E-001	2,58280E-004	...........
	100	102,013	-6,63726E-001	-6,63812E-001	3,58280E-004	...........
	101	103,023	-6,63800E-001	-6,64212E-001	2,58280E-004	...........
	102	104,033	-6,63848E-001	-6,64312E-001	3,58280E-004	...........
	103	105,043	-6,63937E-001	-6,64012E-001	3,58280E-004	...........
	104	106,053	-6,64032E-001	-6,63362E-001	3,58280E-004	...........
	105	107,063	-6,64038E-001	-6,64012E-001	2,58280E-004	...........
	106	108,073	-6,63962E-001	-6,64562E-001	2,58280E-004	...........
	107	109,083	-6,63922E-001	-6,63462E-001	2,58280E-004	...........
	108	110,093	-6,63951E-001	-6,64012E-001	2,58280E-004	...........
	109	111,103	-6,63975E-001	-6,64412E-001	2,58280E-004	...........
	110	112,113	-6,63998E-001	-6,64312E-001	2,58280E-004	...........
	111	113,123	-6,64061E-001	-6,63612E-001	3,58280E-004	...........
	112	114,133	-6,64102E-001	-6,63612E-001	2,58280E-004	...........
	113	115,143	-6,64044E-001	-6,64262E-001	2,58280E-004	...........
	114	116,153	-6,63951E-001	-6,64112E-001	2,58280E-004	...........
	115	117,163	-6,63942E-001	-6,64562E-001	2,58280E-004	...........
	116	118,173	-6,64038E-001	-6,64062E-001	2,58280E-004	...........
	117	119,183	-6,64153E-001	-6,63812E-001	3,58280E-004	...........
	118	120,193	-6,64194E-001	-6,64412E-001	2,58280E-004	...........
	119	121,203	-6,64181E-001	-6,64812E-001	2,58280E-004	...........
	120	122,213	-6,64207E-001	-6,63762E-001	3,58280E-004	...........
	121	123,223	-6,64270E-001	-6,64412E-001	2,58280E-004	...........
	122	124,233	-6,64280E-001	-6,63512E-001	3,58280E-004	...........
	123	125,243	-6,64200E-001	-6,64162E-001	1,58280E-004	...........
	124	126,253	-6,64088E-001	-6,64262E-001	3,58280E-004	...........
	125	127,263	-6,64029E-001	-6,64112E-001	2,58280E-004	...........
	126	128,273	-6,64071E-001	-6,65162E-001	3,58280E-004	...........
	127	129,283	-6,64229E-001	-6,65462E-001	2,58280E-004	...........
	128	130,293	-6,64522E-001	-6,65712E-001	3,58280E-004	...........
	129	131,303	-6,64867E-001	-6,63662E-001	2,58280E-004	...........
	130	132,313	-6,65057E-001	-6,65062E-001	4,58280E-004	...........
	131	133,323	-6,64998E-001	-6,64812E-001	2,58280E-004	...........
	132	134,333	-6,64856E-001	-6,65212E-001	3,58280E-004	...........
	133	135,343	-6,64807E-001	-6,64512E-001	1,58280E-004	...........
	134	136,353	-6,64841E-001	-6,65212E-001	1,58280E-004	...........
	135	137,363	-6,64887E-001	-6,65162E-001	2,58280E-004	...........
	136	138,373	-6,64937E-001	-6,64762E-001	2,58280E-004	...........
	137	139,383	-6,64990E-001	-6,65412E-001	2,58280E-004	...........
	138	140,393	-6,65039E-001	-6,65262E-001	2,58280E-004	...........
	139	141,404	-6,65094E-001	-6,64912E-001	3,58280E-004	...........
	140	142,414	-6,65141E-001	-6,65162E-001	4,58280E-004	...........
	141	143,424	-6,65163E-001	-6,66012E-001	2,58280E-004	...........
	142	144,434	-6,65224E-001	-6,65612E-001	2,58280E-004	...........
	143	145,444	-6,65371E-001	-6,65712E-001	3,58280E-004	...........
	144	146,454	-6,65540E-001	-6,65712E-001	4,58280E-004	...........
	145	147,464	-6,65660E-001	-6,66012E-001	2,58280E-004	...........
	146	148,474	-6,65743E-001	-6,66212E-001	3,58280E-004	...........
	147	149,484	-6,65854E-001	-6,66812E-001	3,58280E-004	...........
	148	150,494	-6,66034E-001	-6,66462E-001	3,58280E-004	...........
	149	151,504	-6,66249E-001	-6,66312E-001	2,58280E-004	...........
	150	152,514	-6,66404E-001	-6,66362E-001	3,58280E-004	...........
	151	153,524	-6,66448E-001	-6,66262E-001	2,58280E-004	...........
	152	154,534	-6,66419E-001	-6,66562E-001	3,58280E-004	...........
	153	155,544	-6,66388E-001	-6,66462E-001	2,58280E-004	...........
	154	156,554	-6,66391E-001	-6,66212E-001	2,58280E-004	...........
	155	157,564	-6,66402E-001	-6,66412E-001	3,58280E-004	...........
	156	158,574	-6,66399E-001	-6,66712E-001	1,58280E-004	...........
	157	159,584	-6,66428E-001	-6,67412E-001	1,58280E-004	...........
	158	160,594	-6,66566E-001	-6,67512E-001	2,58280E-004	...........
	159	161,604	-6,66820E-001	-6,67212E-001	2,58280E-004	...........
	160	162,614	-6,67085E-001	-6,67162E-001	2,58280E-004	...........
	161	163,624	-6,67244E-001	-6,67312E-001	3,58280E-004	...........
	162	164,634	-6,67282E-001	-6,67012E-001	2,58280E-004	...........
	163	165,644	-6,67248E-001	-6,66912E-001	3,58280E-004	...........
	164	166,654	-6,67190E-001	-6,67862E-001	2,58280E-004	...........
	165	167,664	-6,67184E-001	-6,67562E-001	3,58280E-004	...........
	166	168,674	-6,67276E-001	-6,67462E-001	2,58280E-004	...........
	167	169,684	-6,67410E-001	-6,67412E-001	2,58280E-004	...........
	168	170,694	-6,67493E-001	-6,67662E-001	3,58280E-004	...........
	169	171,704	-6,67518E-001	-6,67462E-001	3,58280E-004	...........
	170	172,714	-6,67525E-001	-6,67612E-001	2,58280E-004	...........
	171	173,724	-6,67550E-001	-6,68312E-001	1,58280E-004	...........
	172	174,734	-6,67627E-001	-6,67812E-001	4,58280E-004	...........
	173	175,744	-6,67754E-001	-6,67812E-001	1,58280E-004	...........
	174	176,754	-6,67856E-001	-6,67712E-001	2,58280E-004	...........
	175	177,764	-6,67876E-001	-6,67712E-001	2,58280E-004	...........
	176	178,774	-6,67824E-001	-6,67312E-001	1,58280E-004	...........
	177	179,784	-6,67733E-001	-6,67612E-001	2,58280E-004	...........
	178	180,794	-6,67644E-001	-6,68112E-001	2,58280E-004	...........
	179	181,805	-6,67634E-001	-6,68362E-001	2,58280E-004	...........
	180	182,815	-6,67763E-001	-6,68612E-001	2,58280E-004	...........
	181	183,825	-6,67992E-001	-6,68212E-001	3,58280E-004	...........
	182	184,835	-6,68226E-001	-6,69112E-001	2,58280E-004	...........
	183	185,845	-6,68411E-001	-6,68362E-001	1,58280E-004	...........
	184	186,855	-6,68547E-001	-6,68912E-001	2,58280E-004	...........
	185	187,865	-6,68653E-001	-6,69512E-001	2,58280E-004	...........
	186	188,875	-6,68780E-001	-6,69112E-001	3,58280E-004	...........
	187	189,885	-6,68953E-001	-6,69412E-001	3,58280E-004	...........
	188	190,895	-6,69124E-001	-6,69312E-001	3,58280E-004	...........
	189	191,905	-6,69238E-001	-6,69062E-001	2,58280E-004	...........
	190	192,915	-6,69281E-001	-6,69362E-001	2,58280E-004	...........
	191	193,925	-6,69276E-001	-6,69412E-001	2,58280E-004	...........
	192	194,935	-6,69278E-001	-6,69412E-001	2,58280E-004	...........
	193	195,945	-6,69321E-001	-6,69962E-001	2,58280E-004	...........
	194	196,955	-6,69415E-001	-6,69612E-001	2,58280E-004	...........
	195	197,965	-6,69541E-001	-6,69862E-001	2,58280E-004	...........
	196	198,975	-6,69666E-001	-6,70212E-001	3,58280E-004	...........
	197	199,985	-6,69781E-001	-6,69912E-001	3,58280E-004	...........
	198	200,995	-6,69906E-001	-6,70912E-001	2,58280E-004	...........
	199	202,005	-6,70071E-001	-6,70862E-001	3,58280E-004	...........
	200	203,015	-6,70295E-001	-6,70612E-001	2,58280E-004	...........
	201	204,025	-6,70518E-001	-6,70612E-001	4,58280E-004	...........
	202	205,035	-6,70645E-001	-6,70212E-001	2,58280E-004	...........
	203	206,045	-6,70643E-001	-6,70662E-001	1,58280E-004	...........
	204	207,055	-6,70579E-001	-6,70762E-001	3,58280E-004	...........
	205	208,065	-6,70556E-001	-6,71062E-001	2,58280E-004	...........
	206	209,075	-6,70642E-001	-6,71812E-001	2,58280E-004	...........
	207	210,085	-6,70853E-001	-6,71612E-001	2,58280E-004	...........
	208	211,095	-6,71145E-001	-6,71812E-001	2,58280E-004	...........
	209	212,105	-6,71426E-001	-6,71812E-001	3,58280E-004	...........
	210	213,115	-6,71619E-001	-6,71312E-001	3,58280E-004	...........
	211	214,125	-6,71693E-001	-6,71712E-001	1,58280E-004	...........
	212	215,135	-6,71679E-001	-6,71912E-001	2,58280E-004	...........
	213	216,145	-6,71664E-001	-6,71812E-001	2,58280E-004	...........
	214	217,155	-6,71704E-001	-6,72012E-001	3,58280E-004	...........
	215	218,165	-6,71799E-001	-6,72812E-001	3,58280E-004	...........
	216	219,175	-6,71953E-001	-6,72212E-001	3,58280E-004	...........
	217	220,185	-6,72144E-001	-6,72362E-001	2,58280E-004	...........
	218	221,195	-6,72292E-001	-6,72212E-001	3,58280E-004	...........
	219	222,206	-6,72351E-001	-6,72612E-001	3,58280E-004	...........
	220	223,216	-6,72371E-001	-6,72712E-001	3,58280E-004	...........
	221	224,226	-6,72432E-001	-6,73162E-001	3,58280E-004	...........
	222	225,236	-6,72570E-001	-6,73062E-001	4,58280E-004	...........
	223	226,246	-6,72763E-001	-6,73412E-001	2,58280E-004	...........
	224	227,256	-6,72980E-001	-6,74212E-001	2,58280E-004	...........
	225	228,266	-6,73226E-001	-6,73562E-001	2,58280E-004	...........
	226	229,276	-6,73476E-001	-6,73612E-001	2,58280E-004	...........
	227	230,286	-6,73642E-001	-6,73412E-001	1,58280E-004	...........
	228	231,296	-6,73682E-001	-6,74012E-001	2,58280E-004	...........
	229	232,306	-6,73671E-001	-6,73812E-001	3,58280E-004	...........
	230	233,316	-6,73704E-001	-6,74312E-001	2,58280E-004	...........
	231	234,326	-6,73814E-001	-6,74412E-001	2,58280E-004	...........
	232	235,336	-6,73976E-001	-6,74162E-001	3,58280E-004	...........
	233	236,346	-6,74136E-001	-6,74412E-001	3,58280E-004	...........
	234	237,356	-6,74242E-001	-6,74162E-001	3,58280E-004	...........
	235	238,366	-6,74291E-001	-6,74612E-001	2,58280E-004	...........
	236	239,376	-6,74324E-001	-6,74512E-001	2,58280E-004	...........
	237	240,386	-6,74377E-001	-6,74612E-001	2,58280E-004	...........
	238	241,396	-6,74455E-001	-6,74812E-001	3,58280E-004	...........
	239	242,406	-6,74544E-001	-6,74712E-001	3,58280E-004	...........
	240	243,416	-6,74639E-001	-6,75212E-001	2,58280E-004	...........
	241	244,426	-6,74760E-001	-6,75762E-001	3,58280E-004	...........
	242	245,436	-6,74956E-001	-6,75912E-001	2,58280E-004	...........
	243	246,446	-6,75231E-001	-6,75712E-001	2,58280E-004	...........
	244	247,456	-6,75511E-001	-6,76012E-001	3,58280E-004	...........
	245	248,466	-6,75718E-001	-6,76012E-001	3,58280E-004	...........
	246	249,476	-6,75850E-001	-6,76062E-001	2,58280E-004	...........
	247	250,486	-6,75944E-001	-6,76362E-001	3,58280E-004	...........
	248	251,496	-6,76044E-001	-6,76812E-001	2,58280E-004	...........
	249	252,506	-6,76184E-001	-6,76362E-001	1,58280E-004	...........
	250	253,516	-6,76348E-001	-6,76762E-001	2,58280E-004	...........
	251	254,526	-6,76489E-001	-6,76812E-001	2,58280E-004	...........
	252	255,536	-6,76602E-001	-6,77162E-001	2,58280E-004	...........
	253	256,546	-6,76725E-001	-6,77162E-001	3,58280E-004	...........
	254	257,556	-6,76874E-001	-6,77262E-001	3,58280E-004	...........
	255	258,566	-6,77040E-001	-6,78212E-001	2,58280E-004	...........
	256	259,576	-6,77243E-001	-6,77762E-001	2,58280E-004	...........
	257	260,586	-6,77491E-001	-6,78212E-001	2,58280E-004	...........
	258	261,596	-6,77737E-001	-6,78212E-001	3,58280E-004	...........
	259	262,607	-6,77943E-001	-6,78512E-001	1,58280E-004	...........
	260	263,617	-6,78112E-001	-6,78362E-001	2,58280E-004	...........
	261	264,627	-6,78261E-001	-6,78962E-001	2,58280E-004	...........
	262	265,637	-6,78402E-001	-6,78562E-001	3,58280E-004	...........
	263	266,647	-6,78537E-001	-6,78812E-001	2,58280E-004	...........
	264	267,657	-6,78651E-001	-6,79212E-001	2,58280E-004	...........
	265	268,667	-6,78758E-001	-6,79012E-001	1,58280E-004	...........
	266	269,677	-6,78878E-001	-6,79262E-001	1,58280E-004	...........
	267	270,687	-6,79002E-001	-6,79362E-001	3,58280E-004	...........
	268	271,697	-6,79120E-001	-6,79512E-001	2,58280E-004	...........
	269	272,707	-6,79241E-001	-6,79812E-001	2,58280E-004	...........
	270	273,717	-6,79386E-001	-6,80012E-001	2,58280E-004	...........
	271	274,727	-6,79559E-001	-6,80012E-001	3,58280E-004	...........
	272	275,737	-6,79746E-001	-6,80362E-001	4,58280E-004	...........
	273	276,747	-6,79933E-001	-6,80662E-001	2,58280E-004	...........
	274	277,757	-6,80136E-001	-6,81162E-001	2,58280E-004	...........
	275	278,767	-6,80381E-001	-6,80912E-001	1,58280E-004	...........
	276	279,777	-6,80639E-001	-6,81012E-001	2,58280E-004	...........
	277	280,787	-6,80845E-001	-6,81212E-001	2,58280E-004	...........
	278	281,797	-6,80983E-001	-6,81412E-001	2,58280E-004	...........
	279	282,807	-6,81095E-001	-6,81512E-001	2,58280E-004	...........
	280	283,817	-6,81221E-001	-6,81662E-001	3,58280E-004	...........
	281	284,827	-6,81362E-001	-6,81812E-001	2,58280E-004	...........
	282	285,837	-6,81509E-001	-6,82012E-001	3,58280E-004	...........
	283	286,847	-6,81665E-001	-6,82362E-001	3,58280E-004	...........
	284	287,857	-6,81845E-001	-6,82612E-001	3,58280E-004	...........
	285	288,867	-6,82059E-001	-6,82612E-001	1,58280E-004	...........
	286	289,877	-6,82287E-001	-6,83012E-001	2,58280E-004	...........
	287	290,887	-6,82504E-001	-6,83012E-001	2,58280E-004	...........
	288	291,897	-6,82702E-001	-6,83162E-001	2,58280E-004	...........
	289	292,907	-6,82876E-001	-6,83312E-001	3,58280E-004	...........
	290	293,917	-6,83027E-001	-6,83462E-001	2,58280E-004	...........
	291	294,927	-6,83171E-001	-6,83812E-001	2,58280E-004	...........
	292	295,937	-6,83329E-001	-6,83862E-001	3,58280E-004	...........
	293	296,947	-6,83508E-001	-6,84012E-001	1,58280E-004	...........
	294	297,957	-6,83690E-001	-6,84162E-001	3,58280E-004	...........
	295	298,967	-6,83860E-001	-6,84512E-001	3,58280E-004	...........
	296	299,977	-6,84034E-001	-6,84712E-001	3,58280E-004	...........
