EXPLAIN
TAG	CORPOT
TITLE	LABEL	Mats	Test Identifier
DATE	LABEL	21.2.2023	Date
TIME	LABEL	13.27.18	Time
NOTES	NOTES	1	Notes...
	
PSTAT	PSTAT	PCI4G750-47063	Potentiostat
TIMEOUT	QUANT	6,00000E+002	Total Time (s)
SAMPLETIME	QUANT	1,00000E+000	Sample Period (s)
STABILITY	QUANT	0,00000E+000	Stability (mV/s)
AREA	QUANT	1,00000E+000	Sample Area (cm^2)
SEQUENCER	TOGGLE	TRUE	Run as Sequence
PSTATMODEL	IQUANT	37	Pstat Model
PSTATSECTION	LABEL	PCI4G750-47063	Pstat Section
PSTATSERIALNO	LABEL	47063	Pstat Serial Number
CTRLMODE	IQUANT	1	Control Mode
IESTAB	IQUANT	2	I/E Stability
CASPEED	IQUANT	2	Control Amp Speed
CONVENTION	IQUANT	1	Current Convention
ICHRANGE	IQUANT	2	Ich Range
ICHRANGEMODE	TOGGLE	T	Ich Auto Range
ICHOFFSETENABLE	TOGGLE	F	Ich Offset Enable
ICHOFFSET	QUANT	0	Ich Offset (V)
ICHFILTER	IQUANT	3	Ich Filter
VCHRANGE	IQUANT	3	Vch Range
VCHRANGEMODE	TOGGLE	T	Vch Auto Range
VCHOFFSETENABLE	TOGGLE	F	Vch Offset Enable
VCHOFFSET	QUANT	0	Vch Offset (V)
VCHFILTER	IQUANT	3	Vch Filter
ACHRANGE	IQUANT	0	Ach Range
IERANGELOWERLIMIT	IQUANT	3	I/E Range Lower Limit
IERANGEMODE	TOGGLE	F	I/E AutoRange
IERANGE	IQUANT	10	I/E Range
POSFEEDENABLE	TOGGLE	F	Positive Feedback IR Comp
POSFEEDRESISTANCE	QUANT	0	Positive Feedback Resistance (ohm)
DCCALDATE	LABEL	15.11.2022	DC Calibration Date
ACCALDATE	LABEL	15.11.2022	AC Calibration Date
FRAMEWORKVERSION	QUANT	6,33	Framework Version
CURVE	TABLE	594
	Pt	T	Vf	Vm	Ach	Over
	#	s	V vs. Ref.	V	V	bits
	0	1,01003	-7,40162E-001	-7,40162E-001	3,58280E-004	...........
	1	2,02005	-7,40214E-001	-7,42862E-001	3,58280E-004	...........
	2	3,03008	-7,40476E-001	-7,42562E-001	3,58280E-004	...........
	3	4,0401	-7,41010E-001	-7,40912E-001	3,58280E-004	...........
	4	5,05013	-7,41539E-001	-7,41362E-001	2,58280E-004	...........
	5	6,06015	-7,41762E-001	-7,42512E-001	1,58280E-004	...........
	6	7,07018	-7,41759E-001	-7,41462E-001	3,58280E-004	...........
	7	8,0802	-7,41760E-001	-7,42212E-001	3,58280E-004	...........
	8	9,09023	-7,41799E-001	-7,40812E-001	3,58280E-004	...........
	9	10,1003	-7,41759E-001	-7,40812E-001	3,58280E-004	...........
	10	11,1103	-7,41571E-001	-7,41212E-001	3,58280E-004	...........
	11	12,1203	-7,41310E-001	-7,40812E-001	2,58280E-004	...........
	12	13,1303	-7,41109E-001	-7,41212E-001	3,58280E-004	...........
	13	14,1404	-7,41032E-001	-7,41612E-001	3,58280E-004	...........
	14	15,1504	-7,41088E-001	-7,41962E-001	4,58280E-004	...........
	15	16,1604	-7,41234E-001	-7,40012E-001	4,58280E-004	...........
	16	17,1704	-7,41324E-001	-7,41712E-001	2,58280E-004	...........
	17	18,1805	-7,41252E-001	-7,39812E-001	4,58280E-004	...........
	18	19,1905	-7,41088E-001	-7,42312E-001	1,58280E-004	...........
	19	20,2005	-7,40989E-001	-7,40862E-001	3,58280E-004	...........
	20	21,2105	-7,41035E-001	-7,41262E-001	3,58280E-004	...........
	21	22,2206	-7,41142E-001	-7,41062E-001	3,58280E-004	...........
	22	23,2306	-7,41190E-001	-7,40912E-001	3,58280E-004	...........
	23	24,2406	-7,41131E-001	-7,39562E-001	4,58280E-004	...........
	24	25,2506	-7,40945E-001	-7,40912E-001	4,58280E-004	...........
	25	26,2607	-7,40658E-001	-7,38712E-001	2,58280E-004	...........
	26	27,2707	-7,40344E-001	-7,40612E-001	1,58280E-004	...........
	27	28,2807	-7,40096E-001	-7,40662E-001	2,58280E-004	...........
	28	29,2907	-7,40007E-001	-7,39062E-001	4,58280E-004	...........
	29	30,3008	-7,40019E-001	-7,40012E-001	3,58280E-004	...........
	30	31,3108	-7,39990E-001	-7,40312E-001	4,58280E-004	...........
	31	32,3208	-7,39928E-001	-7,39362E-001	4,58280E-004	...........
	32	33,3308	-7,39880E-001	-7,39212E-001	3,58280E-004	...........
	33	34,3409	-7,39784E-001	-7,39612E-001	2,58280E-004	...........
	34	35,3509	-7,39632E-001	-7,39212E-001	3,58280E-004	...........
	35	36,3609	-7,39473E-001	-7,38362E-001	3,58280E-004	...........
	36	37,3709	-7,39287E-001	-7,38412E-001	4,58280E-004	...........
	37	38,381	-7,39022E-001	-7,38212E-001	3,58280E-004	...........
	38	39,391	-7,38762E-001	-7,40312E-001	2,58280E-004	...........
	39	40,401	-7,38720E-001	-7,40312E-001	2,58280E-004	...........
	40	41,411	-7,38995E-001	-7,38812E-001	2,58280E-004	...........
	41	42,4211	-7,39356E-001	-7,39012E-001	3,58280E-004	...........
	42	43,4311	-7,39500E-001	-7,39612E-001	2,58280E-004	...........
	43	44,4411	-7,39402E-001	-7,37662E-001	3,58280E-004	...........
	44	45,4511	-7,39177E-001	-7,38762E-001	1,58280E-004	...........
	45	46,4612	-7,38899E-001	-7,38712E-001	2,58280E-004	...........
	46	47,4712	-7,38667E-001	-7,38062E-001	3,58280E-004	...........
	47	48,4812	-7,38554E-001	-7,39612E-001	2,58280E-004	...........
	48	49,4912	-7,38582E-001	-7,39212E-001	2,58280E-004	...........
	49	50,5013	-7,38765E-001	-7,40062E-001	2,58280E-004	...........
	50	51,5113	-7,39072E-001	-7,39862E-001	3,58280E-004	...........
	51	52,5213	-7,39394E-001	-7,39162E-001	2,58280E-004	...........
	52	53,5313	-7,39560E-001	-7,37612E-001	3,58280E-004	...........
	53	54,5414	-7,39423E-001	-7,38762E-001	2,58280E-004	...........
	54	55,5514	-7,39037E-001	-7,37912E-001	2,58280E-004	...........
	55	56,5614	-7,38610E-001	-7,37112E-001	2,58280E-004	...........
	56	57,5714	-7,38269E-001	-7,39512E-001	1,58280E-004	...........
	57	58,5815	-7,38114E-001	-7,38912E-001	2,58280E-004	...........
	58	59,5915	-7,38251E-001	-7,39662E-001	2,58280E-004	...........
	59	60,6015	-7,38587E-001	-7,37862E-001	3,58280E-004	...........
	60	61,6115	-7,38812E-001	-7,37112E-001	3,58280E-004	...........
	61	62,6216	-7,38688E-001	-7,38012E-001	3,58280E-004	...........
	62	63,6316	-7,38303E-001	-7,37712E-001	4,58280E-004	...........
	63	64,6416	-7,37919E-001	-7,36262E-001	3,58280E-004	...........
	64	65,6516	-7,37613E-001	-7,37212E-001	3,58280E-004	...........
	65	66,6617	-7,37307E-001	-7,35812E-001	3,58280E-004	...........
	66	67,6717	-7,36998E-001	-7,37412E-001	3,58280E-004	...........
	67	68,6817	-7,36793E-001	-7,37512E-001	2,58280E-004	...........
	68	69,6917	-7,36785E-001	-7,36462E-001	2,58280E-004	...........
	69	70,7018	-7,36937E-001	-7,39012E-001	3,58280E-004	...........
	70	71,7118	-7,37175E-001	-7,37412E-001	3,58280E-004	...........
	71	72,7218	-7,37460E-001	-7,37612E-001	4,58280E-004	...........
	72	73,7318	-7,37663E-001	-7,36912E-001	3,58280E-004	...........
	73	74,7419	-7,37670E-001	-7,37712E-001	3,58280E-004	...........
	74	75,7519	-7,37539E-001	-7,36812E-001	3,58280E-004	...........
	75	76,7619	-7,37397E-001	-7,37662E-001	3,58280E-004	...........
	76	77,7719	-7,37331E-001	-7,38212E-001	1,58280E-004	...........
	77	78,782	-7,37380E-001	-7,36812E-001	4,58280E-004	...........
	78	79,792	-7,37452E-001	-7,36212E-001	2,58280E-004	...........
	79	80,802	-7,37338E-001	-7,35612E-001	2,58280E-004	...........
	80	81,812	-7,36963E-001	-7,36112E-001	3,58280E-004	...........
	81	82,8221	-7,36515E-001	-7,36912E-001	4,58280E-004	...........
	82	83,8321	-7,36274E-001	-7,37412E-001	4,58280E-004	...........
	83	84,8421	-7,36360E-001	-7,36762E-001	3,58280E-004	...........
	84	85,8521	-7,36623E-001	-7,36562E-001	3,58280E-004	...........
	85	86,8622	-7,36797E-001	-7,35812E-001	3,58280E-004	...........
	86	87,8722	-7,36735E-001	-7,35912E-001	3,58280E-004	...........
	87	88,8822	-7,36505E-001	-7,36912E-001	2,58280E-004	...........
	88	89,8922	-7,36321E-001	-7,36812E-001	2,58280E-004	...........
	89	90,9023	-7,36319E-001	-7,35812E-001	4,58280E-004	...........
	90	91,9123	-7,36403E-001	-7,36662E-001	2,58280E-004	...........
	91	92,9223	-7,36423E-001	-7,35812E-001	3,58280E-004	...........
	92	93,9323	-7,36331E-001	-7,34812E-001	2,58280E-004	...........
	93	94,9424	-7,36117E-001	-7,36012E-001	4,58280E-004	...........
	94	95,952	-7,35845E-001	-7,35562E-001	3,58280E-004	...........
	95	96,962	-7,35677E-001	-7,36812E-001	3,58280E-004	...........
	96	97,972	-7,35750E-001	-7,37562E-001	3,58280E-004	...........
	97	98,982	-7,36028E-001	-7,34212E-001	2,58280E-004	...........
	98	99,992	-7,36235E-001	-7,35812E-001	3,58280E-004	...........
	99	101,003	-7,36143E-001	-7,36112E-001	2,58280E-004	...........
	100	102,013	-7,35904E-001	-7,35812E-001	3,58280E-004	...........
	101	103,023	-7,35794E-001	-7,36562E-001	2,58280E-004	...........
	102	104,033	-7,35862E-001	-7,35912E-001	3,58280E-004	...........
	103	105,043	-7,36007E-001	-7,36612E-001	3,58280E-004	...........
	104	106,053	-7,36125E-001	-7,35212E-001	2,58280E-004	...........
	105	107,063	-7,36137E-001	-7,35912E-001	3,58280E-004	...........
	106	108,073	-7,36031E-001	-7,35812E-001	2,58280E-004	...........
	107	109,083	-7,35868E-001	-7,34512E-001	3,58280E-004	...........
	108	110,093	-7,35699E-001	-7,36612E-001	2,58280E-004	...........
	109	111,103	-7,35556E-001	-7,34262E-001	2,58280E-004	...........
	110	112,113	-7,35441E-001	-7,34812E-001	3,58280E-004	...........
	111	113,123	-7,35282E-001	-7,34962E-001	3,58280E-004	...........
	112	114,133	-7,35074E-001	-7,34612E-001	2,58280E-004	...........
	113	115,143	-7,34888E-001	-7,34012E-001	3,58280E-004	...........
	114	116,153	-7,34744E-001	-7,35612E-001	2,58280E-004	...........
	115	117,163	-7,34700E-001	-7,36112E-001	1,58280E-004	...........
	116	118,173	-7,34868E-001	-7,35412E-001	3,58280E-004	...........
	117	119,183	-7,35152E-001	-7,33412E-001	2,58280E-004	...........
	118	120,193	-7,35238E-001	-7,34712E-001	4,58280E-004	...........
	119	121,203	-7,35031E-001	-7,35812E-001	2,58280E-004	...........
	120	122,213	-7,34813E-001	-7,34212E-001	3,58280E-004	...........
	121	123,223	-7,34784E-001	-7,35462E-001	3,58280E-004	...........
	122	124,233	-7,34872E-001	-7,35262E-001	2,58280E-004	...........
	123	125,243	-7,34968E-001	-7,34212E-001	2,58280E-004	...........
	124	126,253	-7,34995E-001	-7,34662E-001	3,58280E-004	...........
	125	127,263	-7,34903E-001	-7,34662E-001	3,58280E-004	...........
	126	128,273	-7,34756E-001	-7,34512E-001	4,58280E-004	...........
	127	129,283	-7,34656E-001	-7,35012E-001	2,58280E-004	...........
	128	130,293	-7,34665E-001	-7,36062E-001	2,58280E-004	...........
	129	131,303	-7,34809E-001	-7,34262E-001	3,58280E-004	...........
	130	132,313	-7,34987E-001	-7,34712E-001	3,58280E-004	...........
	131	133,323	-7,35000E-001	-7,33312E-001	2,58280E-004	...........
	132	134,333	-7,34746E-001	-7,33012E-001	3,58280E-004	...........
	133	135,343	-7,34289E-001	-7,33512E-001	3,58280E-004	...........
	134	136,353	-7,33824E-001	-7,34012E-001	2,58280E-004	...........
	135	137,363	-7,33566E-001	-7,33912E-001	2,58280E-004	...........
	136	138,373	-7,33573E-001	-7,34112E-001	3,58280E-004	...........
	137	139,383	-7,33685E-001	-7,31762E-001	4,58280E-004	...........
	138	140,393	-7,33658E-001	-7,33612E-001	3,58280E-004	...........
	139	141,404	-7,33455E-001	-7,34112E-001	3,58280E-004	...........
	140	142,414	-7,33296E-001	-7,32612E-001	2,58280E-004	...........
	141	143,424	-7,33305E-001	-7,34412E-001	3,58280E-004	...........
	142	144,434	-7,33390E-001	-7,32612E-001	4,58280E-004	...........
	143	145,444	-7,33440E-001	-7,33412E-001	3,58280E-004	...........
	144	146,454	-7,33414E-001	-7,33462E-001	3,58280E-004	...........
	145	147,464	-7,33360E-001	-7,33612E-001	3,58280E-004	...........
	146	148,474	-7,33341E-001	-7,32412E-001	2,58280E-004	...........
	147	149,484	-7,33322E-001	-7,33962E-001	4,58280E-004	...........
	148	150,494	-7,33284E-001	-7,33312E-001	3,58280E-004	...........
	149	151,504	-7,33274E-001	-7,32612E-001	3,58280E-004	...........
	150	152,514	-7,33255E-001	-7,32762E-001	4,58280E-004	...........
	151	153,524	-7,33158E-001	-7,33512E-001	4,58280E-004	...........
	152	154,534	-7,33066E-001	-7,33712E-001	3,58280E-004	...........
	153	155,544	-7,33114E-001	-7,33612E-001	4,58280E-004	...........
	154	156,554	-7,33266E-001	-7,32362E-001	1,58280E-004	...........
	155	157,564	-7,33363E-001	-7,34362E-001	2,58280E-004	...........
	156	158,574	-7,33377E-001	-7,33412E-001	2,58280E-004	...........
	157	159,584	-7,33419E-001	-7,33612E-001	3,58280E-004	...........
	158	160,594	-7,33506E-001	-7,33412E-001	4,58280E-004	...........
	159	161,604	-7,33521E-001	-7,31612E-001	4,58280E-004	...........
	160	162,614	-7,33336E-001	-7,32112E-001	3,58280E-004	...........
	161	163,624	-7,32930E-001	-7,31612E-001	3,58280E-004	...........
	162	164,634	-7,32458E-001	-7,32212E-001	2,58280E-004	...........
	163	165,644	-7,32114E-001	-7,31962E-001	2,58280E-004	...........
	164	166,654	-7,31953E-001	-7,31312E-001	3,58280E-004	...........
	165	167,664	-7,31896E-001	-7,32712E-001	4,58280E-004	...........
	166	168,674	-7,31886E-001	-7,31612E-001	3,58280E-004	...........
	167	169,684	-7,31931E-001	-7,32562E-001	2,58280E-004	...........
	168	170,694	-7,32053E-001	-7,34012E-001	3,58280E-004	...........
	169	171,704	-7,32296E-001	-7,32162E-001	3,58280E-004	...........
	170	172,714	-7,32563E-001	-7,30762E-001	2,58280E-004	...........
	171	173,724	-7,32590E-001	-7,32612E-001	4,58280E-004	...........
	172	174,734	-7,32386E-001	-7,34312E-001	2,58280E-004	...........
	173	175,744	-7,32317E-001	-7,31612E-001	3,58280E-004	...........
	174	176,754	-7,32442E-001	-7,30212E-001	1,58280E-004	...........
	175	177,764	-7,32399E-001	-7,32862E-001	2,58280E-004	...........
	176	178,774	-7,32108E-001	-7,31862E-001	2,58280E-004	...........
	177	179,784	-7,31871E-001	-7,31362E-001	3,58280E-004	...........
	178	180,794	-7,31797E-001	-7,31612E-001	1,58280E-004	...........
	179	181,805	-7,31739E-001	-7,31112E-001	3,58280E-004	...........
	180	182,815	-7,31622E-001	-7,31462E-001	3,58280E-004	...........
	181	183,825	-7,31475E-001	-7,30562E-001	2,58280E-004	...........
	182	184,835	-7,31326E-001	-7,31662E-001	2,58280E-004	...........
	183	185,845	-7,31221E-001	-7,31562E-001	2,58280E-004	...........
	184	186,855	-7,31209E-001	-7,30662E-001	3,58280E-004	...........
	185	187,865	-7,31245E-001	-7,31612E-001	3,58280E-004	...........
	186	188,875	-7,31277E-001	-7,32362E-001	3,58280E-004	...........
	187	189,885	-7,31393E-001	-7,32612E-001	4,58280E-004	...........
	188	190,895	-7,31682E-001	-7,32912E-001	3,58280E-004	...........
	189	191,905	-7,32067E-001	-7,32012E-001	2,58280E-004	...........
	190	192,915	-7,32342E-001	-7,31312E-001	2,58280E-004	...........
	191	193,925	-7,32366E-001	-7,32762E-001	3,58280E-004	...........
	192	194,935	-7,32213E-001	-7,31162E-001	4,58280E-004	...........
	193	195,945	-7,32031E-001	-7,31212E-001	2,58280E-004	...........
	194	196,955	-7,31827E-001	-7,31112E-001	3,58280E-004	...........
	195	197,965	-7,31573E-001	-7,30812E-001	3,58280E-004	...........
	196	198,975	-7,31307E-001	-7,30512E-001	3,58280E-004	...........
	197	199,985	-7,31092E-001	-7,32162E-001	3,58280E-004	...........
	198	200,995	-7,31002E-001	-7,30412E-001	3,58280E-004	...........
	199	202,005	-7,31032E-001	-7,31012E-001	4,58280E-004	...........
	200	203,015	-7,31067E-001	-7,31412E-001	3,58280E-004	...........
	201	204,025	-7,31059E-001	-7,30512E-001	2,58280E-004	...........
	202	205,035	-7,30999E-001	-7,29312E-001	3,58280E-004	...........
	203	206,045	-7,30792E-001	-7,29612E-001	2,58280E-004	...........
	204	207,055	-7,30418E-001	-7,30212E-001	3,58280E-004	...........
	205	208,065	-7,30079E-001	-7,30812E-001	4,58280E-004	...........
	206	209,075	-7,30027E-001	-7,32262E-001	3,58280E-004	...........
	207	210,085	-7,30327E-001	-7,30812E-001	3,58280E-004	...........
	208	211,095	-7,30790E-001	-7,31312E-001	2,58280E-004	...........
	209	212,105	-7,31152E-001	-7,32012E-001	2,58280E-004	...........
	210	213,115	-7,31352E-001	-7,31462E-001	3,58280E-004	...........
	211	214,125	-7,31462E-001	-7,30612E-001	3,58280E-004	...........
	212	215,135	-7,31456E-001	-7,30812E-001	3,58280E-004	...........
	213	216,145	-7,31267E-001	-7,29462E-001	3,58280E-004	...........
	214	217,155	-7,30913E-001	-7,29812E-001	4,58280E-004	...........
	215	218,165	-7,30449E-001	-7,28162E-001	3,58280E-004	...........
	216	219,175	-7,29964E-001	-7,31062E-001	3,58280E-004	...........
	217	220,185	-7,29638E-001	-7,29662E-001	3,58280E-004	...........
	218	221,195	-7,29599E-001	-7,29812E-001	3,58280E-004	...........
	219	222,206	-7,29743E-001	-7,30412E-001	3,58280E-004	...........
	220	223,216	-7,29928E-001	-7,31612E-001	3,58280E-004	...........
	221	224,226	-7,30161E-001	-7,29612E-001	2,58280E-004	...........
	222	225,236	-7,30345E-001	-7,27912E-001	3,58280E-004	...........
	223	226,246	-7,30197E-001	-7,28412E-001	2,58280E-004	...........
	224	227,256	-7,29681E-001	-7,30112E-001	3,58280E-004	...........
	225	228,266	-7,29213E-001	-7,30212E-001	3,58280E-004	...........
	226	229,276	-7,29195E-001	-7,31562E-001	2,58280E-004	...........
	227	230,286	-7,29604E-001	-7,29412E-001	2,58280E-004	...........
	228	231,296	-7,30053E-001	-7,28912E-001	3,58280E-004	...........
	229	232,306	-7,30157E-001	-7,29312E-001	3,58280E-004	...........
	230	233,316	-7,29908E-001	-7,30062E-001	2,58280E-004	...........
	231	234,326	-7,29627E-001	-7,29412E-001	3,58280E-004	...........
	232	235,336	-7,29540E-001	-7,30512E-001	2,58280E-004	...........
	233	236,346	-7,29631E-001	-7,29562E-001	3,58280E-004	...........
	234	237,356	-7,29767E-001	-7,29412E-001	3,58280E-004	...........
	235	238,366	-7,29807E-001	-7,29212E-001	2,58280E-004	...........
	236	239,376	-7,29694E-001	-7,28812E-001	3,58280E-004	...........
	237	240,386	-7,29468E-001	-7,28712E-001	2,58280E-004	...........
	238	241,396	-7,29221E-001	-7,29462E-001	2,58280E-004	...........
	239	242,406	-7,29065E-001	-7,29512E-001	3,58280E-004	...........
	240	243,416	-7,29054E-001	-7,28312E-001	2,58280E-004	...........
	241	244,426	-7,29076E-001	-7,28412E-001	2,58280E-004	...........
	242	245,436	-7,28983E-001	-7,28862E-001	3,58280E-004	...........
	243	246,446	-7,28829E-001	-7,29562E-001	2,58280E-004	...........
	244	247,456	-7,28803E-001	-7,29762E-001	3,58280E-004	...........
	245	248,466	-7,28977E-001	-7,29212E-001	3,58280E-004	...........
	246	249,476	-7,29231E-001	-7,29812E-001	4,58280E-004	...........
	247	250,486	-7,29403E-001	-7,28362E-001	3,58280E-004	...........
	248	251,496	-7,29412E-001	-7,29412E-001	4,58280E-004	...........
	249	252,506	-7,29303E-001	-7,29412E-001	4,58280E-004	...........
	250	253,516	-7,29215E-001	-7,29612E-001	2,58280E-004	...........
	251	254,526	-7,29244E-001	-7,29412E-001	2,58280E-004	...........
	252	255,536	-7,29336E-001	-7,28962E-001	2,58280E-004	...........
	253	256,546	-7,29370E-001	-7,28912E-001	3,58280E-004	...........
	254	257,556	-7,29278E-001	-7,28262E-001	3,58280E-004	...........
	255	258,566	-7,29060E-001	-7,27812E-001	3,58280E-004	...........
	256	259,576	-7,28777E-001	-7,29612E-001	3,58280E-004	...........
	257	260,586	-7,28597E-001	-7,29412E-001	4,58280E-004	...........
	258	261,596	-7,28650E-001	-7,28162E-001	2,58280E-004	...........
	259	262,607	-7,28804E-001	-7,28512E-001	2,58280E-004	...........
	260	263,617	-7,28840E-001	-7,29112E-001	3,58280E-004	...........
	261	264,627	-7,28762E-001	-7,28012E-001	4,58280E-004	...........
	262	265,637	-7,28684E-001	-7,29312E-001	3,58280E-004	...........
	263	266,647	-7,28663E-001	-7,28912E-001	3,58280E-004	...........
	264	267,657	-7,28687E-001	-7,27212E-001	2,58280E-004	...........
	265	268,667	-7,28679E-001	-7,30262E-001	2,58280E-004	...........
	266	269,677	-7,28620E-001	-7,26912E-001	2,58280E-004	...........
	267	270,687	-7,28544E-001	-7,28412E-001	3,58280E-004	...........
	268	271,697	-7,28413E-001	-7,27962E-001	3,58280E-004	...........
	269	272,707	-7,28254E-001	-7,28912E-001	3,58280E-004	...........
	270	273,717	-7,28194E-001	-7,28112E-001	2,58280E-004	...........
	271	274,727	-7,28262E-001	-7,28912E-001	3,58280E-004	...........
	272	275,737	-7,28383E-001	-7,28512E-001	2,58280E-004	...........
	273	276,747	-7,28463E-001	-7,26862E-001	3,58280E-004	...........
	274	277,757	-7,28372E-001	-7,27212E-001	2,58280E-004	...........
	275	278,767	-7,28087E-001	-7,28912E-001	2,58280E-004	...........
	276	279,777	-7,27854E-001	-7,28912E-001	3,58280E-004	...........
	277	280,787	-7,27939E-001	-7,29162E-001	4,58280E-004	...........
	278	281,797	-7,28321E-001	-7,30212E-001	4,58280E-004	...........
	279	282,807	-7,28766E-001	-7,27062E-001	2,58280E-004	...........
	280	283,817	-7,28966E-001	-7,27012E-001	2,58280E-004	...........
	281	284,827	-7,28736E-001	-7,28962E-001	3,58280E-004	...........
	282	285,837	-7,28291E-001	-7,27212E-001	2,58280E-004	...........
	283	286,847	-7,28008E-001	-7,29612E-001	3,58280E-004	...........
	284	287,857	-7,28028E-001	-7,28612E-001	3,58280E-004	...........
	285	288,867	-7,28223E-001	-7,26412E-001	3,58280E-004	...........
	286	289,877	-7,28303E-001	-7,28162E-001	3,58280E-004	...........
	287	290,887	-7,28104E-001	-7,26712E-001	3,58280E-004	...........
	288	291,897	-7,27741E-001	-7,26212E-001	2,58280E-004	...........
	289	292,907	-7,27376E-001	-7,28312E-001	3,58280E-004	...........
	290	293,917	-7,27134E-001	-7,26612E-001	3,58280E-004	...........
	291	294,927	-7,27050E-001	-7,25612E-001	2,58280E-004	...........
	292	295,937	-7,26975E-001	-7,27912E-001	3,58280E-004	...........
	293	296,947	-7,26868E-001	-7,27512E-001	2,58280E-004	...........
	294	297,957	-7,26888E-001	-7,26612E-001	2,58280E-004	...........
	295	298,967	-7,27020E-001	-7,27012E-001	3,58280E-004	...........
	296	299,977	-7,27055E-001	-7,25312E-001	3,58280E-004	...........
	297	300,987	-7,26881E-001	-7,26612E-001	3,58280E-004	...........
	298	301,997	-7,26568E-001	-7,25412E-001	3,58280E-004	...........
	299	303,008	-7,26247E-001	-7,25412E-001	3,58280E-004	...........
	300	304,018	-7,26017E-001	-7,28012E-001	2,58280E-004	...........
	301	305,028	-7,26031E-001	-7,28012E-001	2,58280E-004	...........
	302	306,038	-7,26377E-001	-7,25512E-001	2,58280E-004	...........
	303	307,048	-7,26765E-001	-7,26112E-001	3,58280E-004	...........
	304	308,058	-7,26856E-001	-7,28112E-001	2,58280E-004	...........
	305	309,068	-7,26797E-001	-7,27812E-001	1,58280E-004	...........
	306	310,078	-7,26901E-001	-7,26112E-001	2,58280E-004	...........
	307	311,088	-7,27045E-001	-7,24762E-001	3,58280E-004	...........
	308	312,098	-7,26876E-001	-7,25962E-001	3,58280E-004	...........
	309	313,108	-7,26389E-001	-7,25262E-001	3,58280E-004	...........
	310	314,118	-7,25881E-001	-7,24812E-001	2,58280E-004	...........
	311	315,128	-7,25513E-001	-7,24862E-001	3,58280E-004	...........
	312	316,138	-7,25264E-001	-7,25862E-001	3,58280E-004	...........
	313	317,148	-7,25173E-001	-7,26412E-001	2,58280E-004	...........
	314	318,158	-7,25325E-001	-7,26412E-001	2,58280E-004	...........
	315	319,168	-7,25657E-001	-7,25712E-001	3,58280E-004	...........
	316	320,178	-7,25975E-001	-7,27012E-001	3,58280E-004	...........
	317	321,188	-7,26173E-001	-7,25812E-001	3,58280E-004	...........
	318	322,198	-7,26270E-001	-7,26312E-001	3,58280E-004	...........
	319	323,208	-7,26306E-001	-7,27012E-001	3,58280E-004	...........
	320	324,218	-7,26366E-001	-7,27462E-001	3,58280E-004	...........
	321	325,228	-7,26522E-001	-7,25662E-001	4,58280E-004	...........
	322	326,238	-7,26682E-001	-7,27312E-001	3,58280E-004	...........
	323	327,248	-7,26710E-001	-7,25312E-001	4,58280E-004	...........
	324	328,258	-7,26565E-001	-7,24912E-001	3,58280E-004	...........
	325	329,268	-7,26242E-001	-7,25562E-001	3,58280E-004	...........
	326	330,278	-7,25836E-001	-7,25512E-001	2,58280E-004	...........
	327	331,288	-7,25571E-001	-7,27262E-001	4,58280E-004	...........
	328	332,298	-7,25590E-001	-7,24812E-001	3,58280E-004	...........
	329	333,308	-7,25771E-001	-7,26312E-001	3,58280E-004	...........
	330	334,318	-7,25885E-001	-7,25362E-001	3,58280E-004	...........
	331	335,328	-7,25911E-001	-7,28162E-001	4,58280E-004	...........
	332	336,338	-7,26009E-001	-7,24862E-001	3,58280E-004	...........
	333	337,348	-7,26176E-001	-7,26212E-001	2,58280E-004	...........
	334	338,358	-7,26234E-001	-7,26212E-001	2,58280E-004	...........
	335	339,368	-7,26151E-001	-7,25412E-001	4,58280E-004	...........
	336	340,378	-7,26022E-001	-7,25462E-001	2,58280E-004	...........
	337	341,388	-7,25900E-001	-7,27212E-001	4,58280E-004	...........
	338	342,398	-7,25868E-001	-7,25462E-001	3,58280E-004	...........
	339	343,409	-7,25934E-001	-7,24962E-001	2,58280E-004	...........
	340	344,419	-7,25935E-001	-7,26212E-001	2,58280E-004	...........
	341	345,429	-7,25815E-001	-7,25562E-001	3,58280E-004	...........
	342	346,439	-7,25682E-001	-7,24262E-001	2,58280E-004	...........
	343	347,449	-7,25533E-001	-7,25412E-001	3,58280E-004	...........
	344	348,459	-7,25337E-001	-7,25512E-001	3,58280E-004	...........
	345	349,469	-7,25238E-001	-7,27112E-001	3,58280E-004	...........
	346	350,479	-7,25358E-001	-7,23812E-001	2,58280E-004	...........
	347	351,489	-7,25500E-001	-7,24062E-001	3,58280E-004	...........
	348	352,499	-7,25349E-001	-7,24412E-001	2,58280E-004	...........
	349	353,509	-7,24933E-001	-7,24362E-001	2,58280E-004	...........
	350	354,519	-7,24536E-001	-7,23612E-001	4,58280E-004	...........
	351	355,529	-7,24280E-001	-7,24012E-001	3,58280E-004	...........
	352	356,539	-7,24136E-001	-7,25262E-001	2,58280E-004	...........
	353	357,549	-7,24155E-001	-7,25362E-001	2,58280E-004	...........
	354	358,559	-7,24377E-001	-7,24062E-001	3,58280E-004	...........
	355	359,569	-7,24642E-001	-7,24912E-001	3,58280E-004	...........
	356	360,579	-7,24760E-001	-7,24612E-001	3,58280E-004	...........
	357	361,589	-7,24809E-001	-7,28012E-001	2,58280E-004	...........
	358	362,599	-7,25049E-001	-7,25412E-001	2,58280E-004	...........
	359	363,609	-7,25551E-001	-7,28012E-001	2,58280E-004	...........
	360	364,619	-7,26071E-001	-7,23612E-001	2,58280E-004	...........
	361	365,629	-7,26246E-001	-7,24362E-001	3,58280E-004	...........
	362	366,639	-7,25905E-001	-7,24612E-001	3,58280E-004	...........
	363	367,649	-7,25268E-001	-7,23712E-001	5,58280E-004	...........
	364	368,659	-7,24704E-001	-7,24862E-001	3,58280E-004	...........
	365	369,669	-7,24426E-001	-7,26062E-001	3,58280E-004	...........
	366	370,679	-7,24492E-001	-7,24812E-001	2,58280E-004	...........
	367	371,689	-7,24788E-001	-7,25212E-001	3,58280E-004	...........
	368	372,699	-7,25040E-001	-7,24112E-001	3,58280E-004	...........
	369	373,709	-7,25075E-001	-7,25212E-001	4,58280E-004	...........
	370	374,719	-7,24963E-001	-7,24912E-001	4,58280E-004	...........
	371	375,729	-7,24876E-001	-7,25212E-001	1,58280E-004	...........
	372	376,739	-7,24873E-001	-7,23862E-001	2,58280E-004	...........
	373	377,749	-7,24864E-001	-7,25412E-001	3,58280E-004	...........
	374	378,759	-7,24811E-001	-7,24762E-001	2,58280E-004	...........
	375	379,769	-7,24755E-001	-7,23162E-001	3,58280E-004	...........
	376	380,779	-7,24606E-001	-7,22612E-001	3,58280E-004	...........
	377	381,789	-7,24229E-001	-7,23512E-001	2,58280E-004	...........
	378	382,799	-7,23752E-001	-7,24262E-001	2,58280E-004	...........
	379	383,81	-7,23491E-001	-7,24162E-001	3,58280E-004	...........
	380	384,82	-7,23544E-001	-7,23112E-001	3,58280E-004	...........
	381	385,83	-7,23717E-001	-7,24812E-001	3,58280E-004	...........
	382	386,84	-7,23841E-001	-7,23362E-001	2,58280E-004	...........
	383	387,85	-7,23898E-001	-7,23612E-001	2,58280E-004	...........
	384	388,86	-7,23885E-001	-7,24012E-001	4,58280E-004	...........
	385	389,87	-7,23806E-001	-7,22712E-001	3,58280E-004	...........
	386	390,88	-7,23673E-001	-7,23062E-001	3,58280E-004	...........
	387	391,89	-7,23483E-001	-7,23512E-001	3,58280E-004	...........
	388	392,9	-7,23310E-001	-7,23312E-001	3,58280E-004	...........
	389	393,91	-7,23249E-001	-7,23612E-001	3,58280E-004	...........
	390	394,92	-7,23279E-001	-7,22512E-001	3,58280E-004	...........
	391	395,93	-7,23300E-001	-7,24012E-001	2,58280E-004	...........
	392	396,94	-7,23333E-001	-7,25412E-001	3,58280E-004	...........
	393	397,95	-7,23547E-001	-7,24412E-001	2,58280E-004	...........
	394	398,96	-7,23945E-001	-7,23562E-001	3,58280E-004	...........
	395	399,97	-7,24236E-001	-7,23312E-001	4,58280E-004	...........
	396	400,98	-7,24190E-001	-7,23062E-001	4,58280E-004	...........
	397	401,99	-7,23866E-001	-7,22412E-001	3,58280E-004	...........
	398	403	-7,23428E-001	-7,21812E-001	3,58280E-004	...........
	399	404,01	-7,22977E-001	-7,22812E-001	4,58280E-004	...........
	400	405,02	-7,22626E-001	-7,22962E-001	3,58280E-004	...........
	401	406,03	-7,22499E-001	-7,23012E-001	2,58280E-004	...........
	402	407,04	-7,22622E-001	-7,24462E-001	3,58280E-004	...........
	403	408,05	-7,22911E-001	-7,22712E-001	3,58280E-004	...........
	404	409,06	-7,23207E-001	-7,23012E-001	3,58280E-004	...........
	405	410,07	-7,23319E-001	-7,22512E-001	2,58280E-004	...........
	406	411,08	-7,23218E-001	-7,23512E-001	2,58280E-004	...........
	407	412,09	-7,23088E-001	-7,24012E-001	2,58280E-004	...........
	408	413,1	-7,23152E-001	-7,25012E-001	4,58280E-004	...........
	409	414,11	-7,23452E-001	-7,22812E-001	2,58280E-004	...........
	410	415,12	-7,23778E-001	-7,24262E-001	3,58280E-004	...........
	411	416,13	-7,23936E-001	-7,24612E-001	3,58280E-004	...........
	412	417,14	-7,23972E-001	-7,22762E-001	2,58280E-004	...........
	413	418,15	-7,23920E-001	-7,22212E-001	3,58280E-004	...........
	414	419,16	-7,23698E-001	-7,24412E-001	2,58280E-004	...........
	415	420,17	-7,23424E-001	-7,23562E-001	2,58280E-004	...........
	416	421,18	-7,23331E-001	-7,23012E-001	3,58280E-004	...........
	417	422,19	-7,23363E-001	-7,22112E-001	3,58280E-004	...........
	418	423,201	-7,23311E-001	-7,24612E-001	3,58280E-004	...........
	419	424,211	-7,23226E-001	-7,23512E-001	2,58280E-004	...........
	420	425,221	-7,23249E-001	-7,21412E-001	2,58280E-004	...........
	421	426,231	-7,23243E-001	-7,23112E-001	2,58280E-004	...........
	422	427,241	-7,23032E-001	-7,21712E-001	2,58280E-004	...........
	423	428,251	-7,22705E-001	-7,22162E-001	4,58280E-004	...........
	424	429,261	-7,22434E-001	-7,23112E-001	3,58280E-004	...........
	425	430,271	-7,22323E-001	-7,22412E-001	3,58280E-004	...........
	426	431,281	-7,22368E-001	-7,21862E-001	3,58280E-004	...........
	427	432,291	-7,22445E-001	-7,23662E-001	3,58280E-004	...........
	428	433,301	-7,22491E-001	-7,21412E-001	2,58280E-004	...........
	429	434,311	-7,22511E-001	-7,22762E-001	3,58280E-004	...........
	430	435,321	-7,22469E-001	-7,21762E-001	3,58280E-004	...........
	431	436,331	-7,22380E-001	-7,23062E-001	3,58280E-004	...........
	432	437,341	-7,22308E-001	-7,21012E-001	3,58280E-004	...........
	433	438,351	-7,22228E-001	-7,21712E-001	3,58280E-004	...........
	434	439,361	-7,22094E-001	-7,23262E-001	3,58280E-004	...........
	435	440,371	-7,22010E-001	-7,21612E-001	2,58280E-004	...........
	436	441,381	-7,22084E-001	-7,23362E-001	4,58280E-004	...........
	437	442,391	-7,22255E-001	-7,21912E-001	2,58280E-004	...........
	438	443,401	-7,22394E-001	-7,22062E-001	3,58280E-004	...........
	439	444,411	-7,22418E-001	-7,22462E-001	3,58280E-004	...........
	440	445,421	-7,22360E-001	-7,22712E-001	2,58280E-004	...........
	441	446,431	-7,22343E-001	-7,22662E-001	3,58280E-004	...........
	442	447,441	-7,22397E-001	-7,21362E-001	3,58280E-004	...........
	443	448,451	-7,22428E-001	-7,23812E-001	4,58280E-004	...........
	444	449,461	-7,22432E-001	-7,21912E-001	3,58280E-004	...........
	445	450,471	-7,22470E-001	-7,22312E-001	3,58280E-004	...........
	446	451,481	-7,22462E-001	-7,20812E-001	3,58280E-004	...........
	447	452,491	-7,22266E-001	-7,21012E-001	3,58280E-004	...........
	448	453,501	-7,21895E-001	-7,21812E-001	3,58280E-004	...........
	449	454,511	-7,21580E-001	-7,22962E-001	2,58280E-004	...........
	450	455,521	-7,21552E-001	-7,21712E-001	2,58280E-004	...........
	451	456,531	-7,21741E-001	-7,20412E-001	3,58280E-004	...........
	452	457,541	-7,21799E-001	-7,20512E-001	3,58280E-004	...........
	453	458,551	-7,21551E-001	-7,21512E-001	4,58280E-004	...........
	454	459,561	-7,21235E-001	-7,22512E-001	3,58280E-004	...........
	455	460,571	-7,21193E-001	-7,22162E-001	3,58280E-004	...........
	456	461,581	-7,21465E-001	-7,21812E-001	3,58280E-004	...........
	457	462,591	-7,21795E-001	-7,21862E-001	2,58280E-004	...........
	458	463,602	-7,21949E-001	-7,20962E-001	3,58280E-004	...........
	459	464,612	-7,21881E-001	-7,21512E-001	2,58280E-004	...........
	460	465,622	-7,21663E-001	-7,20262E-001	3,58280E-004	...........
	461	466,632	-7,21386E-001	-7,21212E-001	3,58280E-004	...........
	462	467,642	-7,21156E-001	-7,22212E-001	3,58280E-004	...........
	463	468,652	-7,21124E-001	-7,22162E-001	3,58280E-004	...........
	464	469,662	-7,21323E-001	-7,20612E-001	3,58280E-004	...........
	465	470,672	-7,21543E-001	-7,22062E-001	3,58280E-004	...........
	466	471,682	-7,21614E-001	-7,21512E-001	2,58280E-004	...........
	467	472,692	-7,21588E-001	-7,21112E-001	2,58280E-004	...........
	468	473,702	-7,21555E-001	-7,22312E-001	2,58280E-004	...........
	469	474,712	-7,21555E-001	-7,21412E-001	3,58280E-004	...........
	470	475,722	-7,21579E-001	-7,20412E-001	3,58280E-004	...........
	471	476,732	-7,21534E-001	-7,21812E-001	2,58280E-004	...........
	472	477,742	-7,21394E-001	-7,20912E-001	3,58280E-004	...........
	473	478,752	-7,21252E-001	-7,20562E-001	2,58280E-004	...........
	474	479,762	-7,21146E-001	-7,21662E-001	3,58280E-004	...........
	475	480,772	-7,21077E-001	-7,21062E-001	2,58280E-004	...........
	476	481,782	-7,21062E-001	-7,20112E-001	3,58280E-004	...........
	477	482,792	-7,21033E-001	-7,21412E-001	3,58280E-004	...........
	478	483,802	-7,20934E-001	-7,19812E-001	2,58280E-004	...........
	479	484,812	-7,20780E-001	-7,20012E-001	4,58280E-004	...........
	480	485,822	-7,20569E-001	-7,20012E-001	1,58280E-004	...........
	481	486,832	-7,20360E-001	-7,21712E-001	3,58280E-004	...........
	482	487,842	-7,20313E-001	-7,20462E-001	3,58280E-004	...........
	483	488,852	-7,20443E-001	-7,19362E-001	2,58280E-004	...........
	484	489,862	-7,20542E-001	-7,21662E-001	3,58280E-004	...........
	485	490,872	-7,20544E-001	-7,20912E-001	4,58280E-004	...........
	486	491,882	-7,20639E-001	-7,22762E-001	2,58280E-004	...........
	487	492,892	-7,20985E-001	-7,23212E-001	3,58280E-004	...........
	488	493,902	-7,21547E-001	-7,22162E-001	2,58280E-004	...........
	489	494,912	-7,22064E-001	-7,20012E-001	3,58280E-004	...........
	490	495,922	-7,22162E-001	-7,20212E-001	2,58280E-004	...........
	491	496,932	-7,21725E-001	-7,19912E-001	3,58280E-004	...........
	492	497,942	-7,21038E-001	-7,20112E-001	3,58280E-004	...........
	493	498,952	-7,20461E-001	-7,19862E-001	3,58280E-004	...........
	494	499,962	-7,20164E-001	-7,21812E-001	2,58280E-004	...........
	495	500,972	-7,20170E-001	-7,19962E-001	3,58280E-004	...........
	496	501,982	-7,20343E-001	-7,19612E-001	2,58280E-004	...........
	497	502,992	-7,20410E-001	-7,19512E-001	3,58280E-004	...........
	498	504,003	-7,20222E-001	-7,19012E-001	5,58280E-004	...........
	499	505,013	-7,19873E-001	-7,18962E-001	2,58280E-004	...........
	500	506,023	-7,19510E-001	-7,18912E-001	2,58280E-004	...........
	501	507,033	-7,19261E-001	-7,20962E-001	2,58280E-004	...........
	502	508,043	-7,19250E-001	-7,19362E-001	3,58280E-004	...........
	503	509,053	-7,19440E-001	-7,18812E-001	3,58280E-004	...........
	504	510,063	-7,19563E-001	-7,18512E-001	2,58280E-004	...........
	505	511,073	-7,19424E-001	-7,18762E-001	3,58280E-004	...........
	506	512,083	-7,19135E-001	-7,19312E-001	4,58280E-004	...........
	507	513,093	-7,18969E-001	-7,21062E-001	2,58280E-004	...........
	508	514,103	-7,19123E-001	-7,20012E-001	3,58280E-004	...........
	509	515,113	-7,19517E-001	-7,19112E-001	3,58280E-004	...........
	510	516,123	-7,19782E-001	-7,17212E-001	1,58280E-004	...........
	511	517,133	-7,19606E-001	-7,18812E-001	4,58280E-004	...........
	512	518,143	-7,19095E-001	-7,18212E-001	2,58280E-004	...........
	513	519,153	-7,18647E-001	-7,20012E-001	3,58280E-004	...........
	514	520,163	-7,18543E-001	-7,18812E-001	2,58280E-004	...........
	515	521,173	-7,18735E-001	-7,19412E-001	2,58280E-004	...........
	516	522,183	-7,18991E-001	-7,19062E-001	2,58280E-004	...........
	517	523,193	-7,19152E-001	-7,19262E-001	3,58280E-004	...........
	518	524,203	-7,19251E-001	-7,21412E-001	3,58280E-004	...........
	519	525,213	-7,19432E-001	-7,19012E-001	3,58280E-004	...........
	520	526,223	-7,19706E-001	-7,20512E-001	3,58280E-004	...........
	521	527,233	-7,19926E-001	-7,20012E-001	4,58280E-004	...........
	522	528,243	-7,20016E-001	-7,19212E-001	2,58280E-004	...........
	523	529,253	-7,20000E-001	-7,20562E-001	2,58280E-004	...........
	524	530,263	-7,19931E-001	-7,19212E-001	3,58280E-004	...........
	525	531,273	-7,19870E-001	-7,20162E-001	3,58280E-004	...........
	526	532,283	-7,19856E-001	-7,20862E-001	3,58280E-004	...........
	527	533,293	-7,19957E-001	-7,21112E-001	4,58280E-004	...........
	528	534,303	-7,20199E-001	-7,19812E-001	3,58280E-004	...........
	529	535,313	-7,20406E-001	-7,19012E-001	3,58280E-004	...........
	530	536,323	-7,20355E-001	-7,20012E-001	1,58280E-004	...........
	531	537,333	-7,20065E-001	-7,18762E-001	3,58280E-004	...........
	532	538,343	-7,19718E-001	-7,18812E-001	4,58280E-004	...........
	533	539,353	-7,19410E-001	-7,19212E-001	3,58280E-004	...........
	534	540,363	-7,19211E-001	-7,20912E-001	2,58280E-004	...........
	535	541,373	-7,19277E-001	-7,20962E-001	2,58280E-004	...........
	536	542,383	-7,19629E-001	-7,18912E-001	3,58280E-004	...........
	537	543,393	-7,19968E-001	-7,19112E-001	2,58280E-004	...........
	538	544,404	-7,19975E-001	-7,19112E-001	3,58280E-004	...........
	539	545,414	-7,19674E-001	-7,18262E-001	3,58280E-004	...........
	540	546,424	-7,19292E-001	-7,19212E-001	1,58280E-004	...........
	541	547,434	-7,18998E-001	-7,18812E-001	2,58280E-004	...........
	542	548,444	-7,18869E-001	-7,19412E-001	3,58280E-004	...........
	543	549,454	-7,18897E-001	-7,19162E-001	3,58280E-004	...........
	544	550,464	-7,18990E-001	-7,18212E-001	3,58280E-004	...........
	545	551,474	-7,19011E-001	-7,18562E-001	2,58280E-004	...........
	546	552,484	-7,18893E-001	-7,18612E-001	4,58280E-004	...........
	547	553,494	-7,18733E-001	-7,19212E-001	3,58280E-004	...........
	548	554,504	-7,18662E-001	-7,18212E-001	2,58280E-004	...........
	549	555,514	-7,18648E-001	-7,17412E-001	3,58280E-004	...........
	550	556,524	-7,18550E-001	-7,18812E-001	1,58280E-004	...........
	551	557,534	-7,18354E-001	-7,17262E-001	4,58280E-004	...........
	552	558,544	-7,18138E-001	-7,16912E-001	3,58280E-004	...........
	553	559,554	-7,17917E-001	-7,18912E-001	2,58280E-004	...........
	554	560,564	-7,17755E-001	-7,17412E-001	3,58280E-004	...........
	555	561,574	-7,17779E-001	-7,20012E-001	2,58280E-004	...........
	556	562,584	-7,18055E-001	-7,20112E-001	1,58280E-004	...........
	557	563,594	-7,18546E-001	-7,18662E-001	3,58280E-004	...........
	558	564,604	-7,19017E-001	-7,18062E-001	3,58280E-004	...........
	559	565,614	-7,19167E-001	-7,18812E-001	2,58280E-004	...........
	560	566,624	-7,18981E-001	-7,17912E-001	3,58280E-004	...........
	561	567,634	-7,18730E-001	-7,20612E-001	3,58280E-004	...........
	562	568,644	-7,18660E-001	-7,17662E-001	3,58280E-004	...........
	563	569,654	-7,18767E-001	-7,19362E-001	3,58280E-004	...........
	564	570,664	-7,18845E-001	-7,17512E-001	2,58280E-004	...........
	565	571,674	-7,18770E-001	-7,19012E-001	3,58280E-004	...........
	566	572,684	-7,18635E-001	-7,19512E-001	3,58280E-004	...........
	567	573,694	-7,18625E-001	-7,18912E-001	3,58280E-004	...........
	568	574,704	-7,18739E-001	-7,16912E-001	3,58280E-004	...........
	569	575,714	-7,18740E-001	-7,18812E-001	2,58280E-004	...........
	570	576,724	-7,18542E-001	-7,18512E-001	3,58280E-004	...........
	571	577,734	-7,18368E-001	-7,19112E-001	2,58280E-004	...........
	572	578,744	-7,18355E-001	-7,16412E-001	2,58280E-004	...........
	573	579,754	-7,18327E-001	-7,18212E-001	4,58280E-004	...........
	574	580,764	-7,18113E-001	-7,16562E-001	3,58280E-004	...........
	575	581,774	-7,17795E-001	-7,18212E-001	2,58280E-004	...........
	576	582,784	-7,17573E-001	-7,18212E-001	3,58280E-004	...........
	577	583,794	-7,17565E-001	-7,17612E-001	3,58280E-004	...........
	578	584,805	-7,17689E-001	-7,17162E-001	1,58280E-004	...........
	579	585,815	-7,17781E-001	-7,19412E-001	3,58280E-004	...........
	580	586,825	-7,17840E-001	-7,16912E-001	4,58280E-004	...........
	581	587,835	-7,17936E-001	-7,19162E-001	2,58280E-004	...........
	582	588,845	-7,18050E-001	-7,17862E-001	3,58280E-004	...........
	583	589,855	-7,18161E-001	-7,18862E-001	2,58280E-004	...........
	584	590,865	-7,18244E-001	-7,16662E-001	2,58280E-004	...........
	585	591,875	-7,18202E-001	-7,17862E-001	3,58280E-004	...........
	586	592,885	-7,17996E-001	-7,17362E-001	3,58280E-004	...........
	587	593,895	-7,17766E-001	-7,18712E-001	2,58280E-004	...........
	588	594,905	-7,17669E-001	-7,16412E-001	4,58280E-004	...........
	589	595,915	-7,17659E-001	-7,17812E-001	2,58280E-004	...........
	590	596,925	-7,17572E-001	-7,15812E-001	2,58280E-004	...........
	591	597,935	-7,17365E-001	-7,18112E-001	3,58280E-004	...........
	592	598,945	-7,17115E-001	-7,14462E-001	3,58280E-004	...........
	593	599,955	-7,16829E-001	-7,16212E-001	2,58280E-004	...........
