EXPLAIN
TAG	CORPOT
TITLE	LABEL	Mats	Test Identifier
DATE	LABEL	15.2.2023	Date
TIME	LABEL	13.19.21	Time
NOTES	NOTES	1	Notes...
	
PSTAT	PSTAT	PCI4G750-47063	Potentiostat
TIMEOUT	QUANT	3,00000E+002	Total Time (s)
SAMPLETIME	QUANT	1,00000E+000	Sample Period (s)
STABILITY	QUANT	0,00000E+000	Stability (mV/s)
AREA	QUANT	1,00000E+000	Sample Area (cm^2)
SEQUENCER	TOGGLE	TRUE	Run as Sequence
PSTATMODEL	IQUANT	37	Pstat Model
PSTATSECTION	LABEL	PCI4G750-47063	Pstat Section
PSTATSERIALNO	LABEL	47063	Pstat Serial Number
CTRLMODE	IQUANT	1	Control Mode
IESTAB	IQUANT	2	I/E Stability
CASPEED	IQUANT	2	Control Amp Speed
CONVENTION	IQUANT	1	Current Convention
ICHRANGE	IQUANT	2	Ich Range
ICHRANGEMODE	TOGGLE	T	Ich Auto Range
ICHOFFSETENABLE	TOGGLE	F	Ich Offset Enable
ICHOFFSET	QUANT	0	Ich Offset (V)
ICHFILTER	IQUANT	3	Ich Filter
VCHRANGE	IQUANT	3	Vch Range
VCHRANGEMODE	TOGGLE	T	Vch Auto Range
VCHOFFSETENABLE	TOGGLE	F	Vch Offset Enable
VCHOFFSET	QUANT	0	Vch Offset (V)
VCHFILTER	IQUANT	3	Vch Filter
ACHRANGE	IQUANT	0	Ach Range
IERANGELOWERLIMIT	IQUANT	3	I/E Range Lower Limit
IERANGEMODE	TOGGLE	F	I/E AutoRange
IERANGE	IQUANT	10	I/E Range
POSFEEDENABLE	TOGGLE	F	Positive Feedback IR Comp
POSFEEDRESISTANCE	QUANT	0	Positive Feedback Resistance (ohm)
DCCALDATE	LABEL	15.11.2022	DC Calibration Date
ACCALDATE	LABEL	15.11.2022	AC Calibration Date
FRAMEWORKVERSION	QUANT	6,33	Framework Version
CURVE	TABLE	297
	Pt	T	Vf	Vm	Ach	Over
	#	s	V vs. Ref.	V	V	bits
	0	1,01003	-7,04312E-001	-7,04312E-001	-3,41720E-004	...........
	1	2,02005	-7,04316E-001	-7,04512E-001	-4,41720E-004	...........
	2	3,03008	-7,04342E-001	-7,04812E-001	-5,41720E-004	...........
	3	4,0401	-7,04423E-001	-7,05212E-001	-3,41720E-004	...........
	4	5,05013	-7,04579E-001	-7,04912E-001	-4,41720E-004	...........
	5	6,06015	-7,04775E-001	-7,05412E-001	-4,41720E-004	...........
	6	7,07018	-7,04966E-001	-7,05662E-001	-3,41720E-004	...........
	7	8,0802	-7,05148E-001	-7,05412E-001	-5,41720E-004	...........
	8	9,09023	-7,05322E-001	-7,05912E-001	-4,41720E-004	...........
	9	10,1003	-7,05486E-001	-7,06212E-001	-3,41720E-004	...........
	10	11,1103	-7,05662E-001	-7,06312E-001	-3,41720E-004	...........
	11	12,1203	-7,05877E-001	-7,06812E-001	-4,41720E-004	...........
	12	13,1303	-7,06141E-001	-7,07562E-001	-4,41720E-004	...........
	13	14,1404	-7,06468E-001	-7,07462E-001	-3,41720E-004	...........
	14	15,1504	-7,06860E-001	-7,08612E-001	-5,41720E-004	...........
	15	16,1604	-7,07277E-001	-7,07412E-001	-4,41720E-004	...........
	16	17,1704	-7,07620E-001	-7,07612E-001	-3,41720E-004	...........
	17	18,1805	-7,07782E-001	-7,07512E-001	-4,41720E-004	...........
	18	19,1905	-7,07774E-001	-7,08212E-001	-4,41720E-004	...........
	19	20,2005	-7,07736E-001	-7,07712E-001	-4,41720E-004	...........
	20	21,2105	-7,07772E-001	-7,08612E-001	-4,41720E-004	...........
	21	22,2206	-7,07900E-001	-7,08762E-001	-2,41720E-004	...........
	22	23,2306	-7,08103E-001	-7,08212E-001	-4,41720E-004	...........
	23	24,2406	-7,08302E-001	-7,08162E-001	-4,41720E-004	...........
	24	25,2506	-7,08394E-001	-7,08412E-001	-3,41720E-004	...........
	25	26,2607	-7,08379E-001	-7,08262E-001	-4,41720E-004	...........
	26	27,2707	-7,08342E-001	-7,08612E-001	-4,41720E-004	...........
	27	28,2807	-7,08353E-001	-7,08962E-001	-4,41720E-004	...........
	28	29,2907	-7,08440E-001	-7,08662E-001	-3,41720E-004	...........
	29	30,3008	-7,08586E-001	-7,09362E-001	-4,41720E-004	...........
	30	31,3108	-7,08753E-001	-7,09162E-001	-4,41720E-004	...........
	31	32,3208	-7,08923E-001	-7,09212E-001	-4,41720E-004	...........
	32	33,3308	-7,09075E-001	-7,09562E-001	-3,41720E-004	...........
	33	34,3409	-7,09204E-001	-7,09612E-001	-3,41720E-004	...........
	34	35,3509	-7,09328E-001	-7,09612E-001	-5,41720E-004	...........
	35	36,3609	-7,09453E-001	-7,09812E-001	-4,41720E-004	...........
	36	37,3709	-7,09568E-001	-7,09962E-001	-3,41720E-004	...........
	37	38,381	-7,09688E-001	-7,10462E-001	-3,41720E-004	...........
	38	39,391	-7,09849E-001	-7,10612E-001	-3,41720E-004	...........
	39	40,401	-7,10070E-001	-7,10912E-001	-3,41720E-004	...........
	40	41,411	-7,10332E-001	-7,11112E-001	-4,41720E-004	...........
	41	42,4211	-7,10601E-001	-7,11312E-001	-4,41720E-004	...........
	42	43,4311	-7,10855E-001	-7,11612E-001	-4,41720E-004	...........
	43	44,4411	-7,11084E-001	-7,11212E-001	-4,41720E-004	...........
	44	45,4511	-7,11263E-001	-7,11612E-001	-3,41720E-004	...........
	45	46,4612	-7,11373E-001	-7,11412E-001	-3,41720E-004	...........
	46	47,4712	-7,11433E-001	-7,11612E-001	-3,41720E-004	...........
	47	48,4812	-7,11480E-001	-7,11912E-001	-4,41720E-004	...........
	48	49,4912	-7,11548E-001	-7,11812E-001	-3,41720E-004	...........
	49	50,5013	-7,11646E-001	-7,11812E-001	-5,41720E-004	...........
	50	51,5113	-7,11743E-001	-7,12012E-001	-2,41720E-004	...........
	51	52,5213	-7,11822E-001	-7,12112E-001	-3,41720E-004	...........
	52	53,5313	-7,11897E-001	-7,12112E-001	-3,41720E-004	...........
	53	54,5414	-7,11990E-001	-7,12812E-001	-4,41720E-004	...........
	54	55,5514	-7,12125E-001	-7,12612E-001	-4,41720E-004	...........
	55	56,5614	-7,12302E-001	-7,12512E-001	-4,41720E-004	...........
	56	57,5714	-7,12461E-001	-7,12462E-001	-3,41720E-004	...........
	57	58,5815	-7,12545E-001	-7,12712E-001	-4,41720E-004	...........
	58	59,5915	-7,12599E-001	-7,14162E-001	-4,41720E-004	...........
	59	60,6015	-7,12764E-001	-7,14012E-001	-3,41720E-004	...........
	60	61,6115	-7,13102E-001	-7,13612E-001	-3,41720E-004	...........
	61	62,6216	-7,13488E-001	-7,14412E-001	-3,41720E-004	...........
	62	63,6316	-7,13779E-001	-7,14012E-001	-3,41720E-004	...........
	63	64,6416	-7,13948E-001	-7,13462E-001	-2,41720E-004	...........
	64	65,6516	-7,13988E-001	-7,13612E-001	-4,41720E-004	...........
	65	66,6617	-7,13907E-001	-7,13862E-001	-3,41720E-004	...........
	66	67,6717	-7,13798E-001	-7,14062E-001	-3,41720E-004	...........
	67	68,6817	-7,13776E-001	-7,14412E-001	-3,41720E-004	...........
	68	69,6917	-7,13876E-001	-7,14362E-001	-3,41720E-004	...........
	69	70,7018	-7,14049E-001	-7,14362E-001	-3,41720E-004	...........
	70	71,7118	-7,14220E-001	-7,14712E-001	-3,41720E-004	...........
	71	72,7218	-7,14355E-001	-7,14562E-001	-4,41720E-004	...........
	72	73,7318	-7,14465E-001	-7,14762E-001	-3,41720E-004	...........
	73	74,7419	-7,14558E-001	-7,14712E-001	-4,41720E-004	...........
	74	75,7519	-7,14632E-001	-7,14712E-001	-2,41720E-004	...........
	75	76,7619	-7,14688E-001	-7,15012E-001	-4,41720E-004	...........
	76	77,7719	-7,14743E-001	-7,15012E-001	-4,41720E-004	...........
	77	78,782	-7,14818E-001	-7,15012E-001	-3,41720E-004	...........
	78	79,792	-7,14907E-001	-7,15312E-001	-3,41720E-004	...........
	79	80,802	-7,15011E-001	-7,15812E-001	-5,41720E-004	...........
	80	81,812	-7,15162E-001	-7,15812E-001	-3,41720E-004	...........
	81	82,8221	-7,15372E-001	-7,16012E-001	-4,41720E-004	...........
	82	83,8321	-7,15602E-001	-7,16112E-001	-4,41720E-004	...........
	83	84,8421	-7,15812E-001	-7,16612E-001	-3,41720E-004	...........
	84	85,8521	-7,16010E-001	-7,16512E-001	-2,41720E-004	...........
	85	86,8622	-7,16197E-001	-7,16012E-001	-4,41720E-004	...........
	86	87,8722	-7,16314E-001	-7,16112E-001	-4,41720E-004	...........
	87	88,8822	-7,16317E-001	-7,16212E-001	-3,41720E-004	...........
	88	89,8922	-7,16257E-001	-7,16512E-001	-4,41720E-004	...........
	89	90,9023	-7,16235E-001	-7,16612E-001	-4,41720E-004	...........
	90	91,9123	-7,16297E-001	-7,16612E-001	-4,41720E-004	...........
	91	92,9223	-7,16430E-001	-7,17612E-001	-5,41720E-004	...........
	92	93,9323	-7,16624E-001	-7,17012E-001	-3,41720E-004	...........
	93	94,9424	-7,16849E-001	-7,16912E-001	-3,41720E-004	...........
	94	95,952	-7,17019E-001	-7,17262E-001	-4,41720E-004	...........
	95	96,962	-7,17105E-001	-7,17812E-001	-3,41720E-004	...........
	96	97,972	-7,17192E-001	-7,17612E-001	-4,41720E-004	...........
	97	98,982	-7,17342E-001	-7,17862E-001	-3,41720E-004	...........
	98	99,992	-7,17516E-001	-7,17662E-001	-2,41720E-004	...........
	99	101,003	-7,17655E-001	-7,18012E-001	-3,41720E-004	...........
	100	102,013	-7,17758E-001	-7,18412E-001	-4,41720E-004	...........
	101	103,023	-7,17865E-001	-7,17712E-001	-4,41720E-004	...........
	102	104,033	-7,17961E-001	-7,17712E-001	-3,41720E-004	...........
	103	105,043	-7,17982E-001	-7,17962E-001	-4,41720E-004	...........
	104	106,053	-7,17936E-001	-7,18012E-001	-3,41720E-004	...........
	105	107,063	-7,17906E-001	-7,18262E-001	-4,41720E-004	...........
	106	108,073	-7,17955E-001	-7,18762E-001	-4,41720E-004	...........
	107	109,083	-7,18097E-001	-7,18612E-001	-2,41720E-004	...........
	108	110,093	-7,18299E-001	-7,18762E-001	-4,41720E-004	...........
	109	111,103	-7,18493E-001	-7,18712E-001	-4,41720E-004	...........
	110	112,113	-7,18625E-001	-7,18612E-001	-3,41720E-004	...........
	111	113,123	-7,18685E-001	-7,18612E-001	-4,41720E-004	...........
	112	114,133	-7,18690E-001	-7,18812E-001	-4,41720E-004	...........
	113	115,143	-7,18688E-001	-7,19012E-001	-4,41720E-004	...........
	114	116,153	-7,18728E-001	-7,19162E-001	-5,41720E-004	...........
	115	117,163	-7,18822E-001	-7,18912E-001	-3,41720E-004	...........
	116	118,173	-7,18927E-001	-7,19012E-001	-4,41720E-004	...........
	117	119,183	-7,18994E-001	-7,19162E-001	-4,41720E-004	...........
	118	120,193	-7,19034E-001	-7,19462E-001	-4,41720E-004	...........
	119	121,203	-7,19099E-001	-7,19512E-001	-3,41720E-004	...........
	120	122,213	-7,19201E-001	-7,19012E-001	-2,41720E-004	...........
	121	123,223	-7,19295E-001	-7,19812E-001	-4,41720E-004	...........
	122	124,233	-7,19380E-001	-7,20612E-001	-4,41720E-004	...........
	123	125,243	-7,19547E-001	-7,20412E-001	-3,41720E-004	...........
	124	126,253	-7,19823E-001	-7,19812E-001	-4,41720E-004	...........
	125	127,263	-7,20064E-001	-7,19862E-001	-4,41720E-004	...........
	126	128,273	-7,20144E-001	-7,20412E-001	-4,41720E-004	...........
	127	129,283	-7,20117E-001	-7,19912E-001	-4,41720E-004	...........
	128	130,293	-7,20084E-001	-7,19862E-001	-3,41720E-004	...........
	129	131,303	-7,20057E-001	-7,20012E-001	-3,41720E-004	...........
	130	132,313	-7,20017E-001	-7,20012E-001	-3,41720E-004	...........
	131	133,323	-7,19992E-001	-7,20312E-001	-3,41720E-004	...........
	132	134,333	-7,20024E-001	-7,20712E-001	-3,41720E-004	...........
	133	135,343	-7,20137E-001	-7,20462E-001	-3,41720E-004	...........
	134	136,353	-7,20296E-001	-7,20512E-001	-3,41720E-004	...........
	135	137,363	-7,20436E-001	-7,20812E-001	-3,41720E-004	...........
	136	138,373	-7,20533E-001	-7,20662E-001	-4,41720E-004	...........
	137	139,383	-7,20607E-001	-7,20812E-001	-3,41720E-004	...........
	138	140,393	-7,20672E-001	-7,20812E-001	-4,41720E-004	...........
	139	141,404	-7,20728E-001	-7,20912E-001	-3,41720E-004	...........
	140	142,414	-7,20782E-001	-7,21012E-001	-3,41720E-004	...........
	141	143,424	-7,20849E-001	-7,21412E-001	-3,41720E-004	...........
	142	144,434	-7,20954E-001	-7,21512E-001	-4,41720E-004	...........
	143	145,444	-7,21105E-001	-7,21412E-001	-5,41720E-004	...........
	144	146,454	-7,21263E-001	-7,21412E-001	-4,41720E-004	...........
	145	147,464	-7,21380E-001	-7,21712E-001	-3,41720E-004	...........
	146	148,474	-7,21456E-001	-7,21662E-001	-3,41720E-004	...........
	147	149,484	-7,21524E-001	-7,21612E-001	-3,41720E-004	...........
	148	150,494	-7,21585E-001	-7,21612E-001	-4,41720E-004	...........
	149	151,504	-7,21625E-001	-7,21862E-001	-4,41720E-004	...........
	150	152,514	-7,21655E-001	-7,21662E-001	-3,41720E-004	...........
	151	153,524	-7,21684E-001	-7,21612E-001	-3,41720E-004	...........
	152	154,534	-7,21703E-001	-7,21862E-001	-3,41720E-004	...........
	153	155,544	-7,21712E-001	-7,21812E-001	-4,41720E-004	...........
	154	156,554	-7,21738E-001	-7,22062E-001	-4,41720E-004	...........
	155	157,564	-7,21795E-001	-7,22012E-001	-3,41720E-004	...........
	156	158,574	-7,21879E-001	-7,22262E-001	-5,41720E-004	...........
	157	159,584	-7,21976E-001	-7,22212E-001	-4,41720E-004	...........
	158	160,594	-7,22076E-001	-7,22412E-001	-2,41720E-004	...........
	159	161,604	-7,22183E-001	-7,22912E-001	-3,41720E-004	...........
	160	162,614	-7,22316E-001	-7,22562E-001	-4,41720E-004	...........
	161	163,624	-7,22465E-001	-7,22562E-001	-4,41720E-004	...........
	162	164,634	-7,22574E-001	-7,22512E-001	-4,41720E-004	...........
	163	165,644	-7,22606E-001	-7,22512E-001	-3,41720E-004	...........
	164	166,654	-7,22591E-001	-7,22812E-001	-4,41720E-004	...........
	165	167,664	-7,22582E-001	-7,22612E-001	-4,41720E-004	...........
	166	168,674	-7,22609E-001	-7,22912E-001	-4,41720E-004	...........
	167	169,684	-7,22671E-001	-7,23112E-001	-4,41720E-004	...........
	168	170,694	-7,22769E-001	-7,23312E-001	-3,41720E-004	...........
	169	171,704	-7,22914E-001	-7,23612E-001	-3,41720E-004	...........
	170	172,714	-7,23100E-001	-7,23612E-001	-4,41720E-004	...........
	171	173,724	-7,23296E-001	-7,23612E-001	-4,41720E-004	...........
	172	174,734	-7,23460E-001	-7,23662E-001	-2,41720E-004	...........
	173	175,744	-7,23574E-001	-7,24012E-001	-4,41720E-004	...........
	174	176,754	-7,23661E-001	-7,23812E-001	-4,41720E-004	...........
	175	177,764	-7,23741E-001	-7,23612E-001	-3,41720E-004	...........
	176	178,774	-7,23791E-001	-7,23962E-001	-5,41720E-004	...........
	177	179,784	-7,23804E-001	-7,23762E-001	-4,41720E-004	...........
	178	180,794	-7,23809E-001	-7,24012E-001	-4,41720E-004	...........
	179	181,805	-7,23831E-001	-7,23962E-001	-4,41720E-004	...........
	180	182,815	-7,23874E-001	-7,24012E-001	-5,41720E-004	...........
	181	183,825	-7,23923E-001	-7,24012E-001	-4,41720E-004	...........
	182	184,835	-7,23969E-001	-7,24212E-001	-4,41720E-004	...........
	183	185,845	-7,24020E-001	-7,24412E-001	-4,41720E-004	...........
	184	186,855	-7,24096E-001	-7,24262E-001	-3,41720E-004	...........
	185	187,865	-7,24189E-001	-7,24412E-001	-5,41720E-004	...........
	186	188,875	-7,24276E-001	-7,24612E-001	-4,41720E-004	...........
	187	189,885	-7,24356E-001	-7,24612E-001	-4,41720E-004	...........
	188	190,895	-7,24448E-001	-7,25012E-001	-2,41720E-004	...........
	189	191,905	-7,24564E-001	-7,24762E-001	-4,41720E-004	...........
	190	192,915	-7,24681E-001	-7,24612E-001	-4,41720E-004	...........
	191	193,925	-7,24750E-001	-7,24612E-001	-4,41720E-004	...........
	192	194,935	-7,24750E-001	-7,24812E-001	-3,41720E-004	...........
	193	195,945	-7,24723E-001	-7,24912E-001	-5,41720E-004	...........
	194	196,955	-7,24731E-001	-7,25012E-001	-3,41720E-004	...........
	195	197,965	-7,24793E-001	-7,25112E-001	-3,41720E-004	...........
	196	198,975	-7,24892E-001	-7,25362E-001	-4,41720E-004	...........
	197	199,985	-7,25008E-001	-7,25162E-001	-4,41720E-004	...........
	198	200,995	-7,25120E-001	-7,25412E-001	-5,41720E-004	...........
	199	202,005	-7,25223E-001	-7,26012E-001	-3,41720E-004	...........
	200	203,015	-7,25350E-001	-7,25812E-001	-3,41720E-004	...........
	201	204,025	-7,25521E-001	-7,25762E-001	-3,41720E-004	...........
	202	205,035	-7,25677E-001	-7,25612E-001	-3,41720E-004	...........
	203	206,045	-7,25752E-001	-7,25612E-001	-3,41720E-004	...........
	204	207,055	-7,25738E-001	-7,25462E-001	-4,41720E-004	...........
	205	208,065	-7,25677E-001	-7,25662E-001	-4,41720E-004	...........
	206	209,075	-7,25623E-001	-7,25912E-001	-4,41720E-004	...........
	207	210,085	-7,25623E-001	-7,25812E-001	-3,41720E-004	...........
	208	211,095	-7,25681E-001	-7,25812E-001	-4,41720E-004	...........
	209	212,105	-7,25758E-001	-7,26012E-001	-3,41720E-004	...........
	210	213,115	-7,25825E-001	-7,26012E-001	-4,41720E-004	...........
	211	214,125	-7,25886E-001	-7,26012E-001	-3,41720E-004	...........
	212	215,135	-7,25946E-001	-7,26212E-001	-3,41720E-004	...........
	213	216,145	-7,26008E-001	-7,26212E-001	-4,41720E-004	...........
	214	217,155	-7,26074E-001	-7,26212E-001	-3,41720E-004	...........
	215	218,165	-7,26143E-001	-7,26512E-001	-3,41720E-004	...........
	216	219,175	-7,26226E-001	-7,26912E-001	-4,41720E-004	...........
	217	220,185	-7,26357E-001	-7,27012E-001	-5,41720E-004	...........
	218	221,195	-7,26551E-001	-7,27262E-001	-2,41720E-004	...........
	219	222,206	-7,26772E-001	-7,27012E-001	-4,41720E-004	...........
	220	223,216	-7,26955E-001	-7,27012E-001	-3,41720E-004	...........
	221	224,226	-7,27049E-001	-7,26812E-001	-4,41720E-004	...........
	222	225,236	-7,27047E-001	-7,26812E-001	-4,41720E-004	...........
	223	226,246	-7,26990E-001	-7,27212E-001	-5,41720E-004	...........
	224	227,256	-7,26954E-001	-7,27312E-001	-4,41720E-004	...........
	225	228,266	-7,26994E-001	-7,27262E-001	-3,41720E-004	...........
	226	229,276	-7,27093E-001	-7,27212E-001	-4,41720E-004	...........
	227	230,286	-7,27186E-001	-7,27262E-001	-2,41720E-004	...........
	228	231,296	-7,27239E-001	-7,27412E-001	-4,41720E-004	...........
	229	232,306	-7,27273E-001	-7,27512E-001	-3,41720E-004	...........
	230	233,316	-7,27320E-001	-7,27462E-001	-4,41720E-004	...........
	231	234,326	-7,27380E-001	-7,27462E-001	-3,41720E-004	...........
	232	235,336	-7,27434E-001	-7,27562E-001	-2,41720E-004	...........
	233	236,346	-7,27476E-001	-7,27812E-001	-3,41720E-004	...........
	234	237,356	-7,27532E-001	-7,27862E-001	-3,41720E-004	...........
	235	238,366	-7,27619E-001	-7,27862E-001	-3,41720E-004	...........
	236	239,376	-7,27723E-001	-7,28012E-001	-4,41720E-004	...........
	237	240,386	-7,27818E-001	-7,28012E-001	-3,41720E-004	...........
	238	241,396	-7,27900E-001	-7,28212E-001	-3,41720E-004	...........
	239	242,406	-7,27982E-001	-7,28362E-001	-3,41720E-004	...........
	240	243,416	-7,28074E-001	-7,28162E-001	-4,41720E-004	...........
	241	244,426	-7,28171E-001	-7,28762E-001	-4,41720E-004	...........
	242	245,436	-7,28276E-001	-7,28662E-001	-4,41720E-004	...........
	243	246,446	-7,28396E-001	-7,28412E-001	-4,41720E-004	...........
	244	247,456	-7,28498E-001	-7,28462E-001	-4,41720E-004	...........
	245	248,466	-7,28537E-001	-7,28462E-001	-3,41720E-004	...........
	246	249,476	-7,28523E-001	-7,28612E-001	-3,41720E-004	...........
	247	250,486	-7,28506E-001	-7,28562E-001	-4,41720E-004	...........
	248	251,496	-7,28522E-001	-7,28962E-001	-4,41720E-004	...........
	249	252,506	-7,28588E-001	-7,29162E-001	-4,41720E-004	...........
	250	253,516	-7,28714E-001	-7,29112E-001	-3,41720E-004	...........
	251	254,526	-7,28868E-001	-7,28912E-001	-3,41720E-004	...........
	252	255,536	-7,28984E-001	-7,28912E-001	-3,41720E-004	...........
	253	256,546	-7,29023E-001	-7,29162E-001	-3,41720E-004	...........
	254	257,556	-7,29023E-001	-7,29212E-001	-3,41720E-004	...........
	255	258,566	-7,29042E-001	-7,29162E-001	-4,41720E-004	...........
	256	259,576	-7,29091E-001	-7,29212E-001	-4,41720E-004	...........
	257	260,586	-7,29142E-001	-7,29162E-001	-4,41720E-004	...........
	258	261,596	-7,29174E-001	-7,29212E-001	-3,41720E-004	...........
	259	262,607	-7,29196E-001	-7,29612E-001	-4,41720E-004	...........
	260	263,617	-7,29242E-001	-7,29612E-001	-4,41720E-004	...........
	261	264,627	-7,29338E-001	-7,29662E-001	-3,41720E-004	...........
	262	265,637	-7,29461E-001	-7,29712E-001	-3,41720E-004	...........
	263	266,647	-7,29583E-001	-7,30412E-001	-2,41720E-004	...........
	264	267,657	-7,29716E-001	-7,29812E-001	-4,41720E-004	...........
	265	268,667	-7,29855E-001	-7,29862E-001	-3,41720E-004	...........
	266	269,677	-7,29946E-001	-7,30062E-001	-5,41720E-004	...........
	267	270,687	-7,29975E-001	-7,30212E-001	-4,41720E-004	...........
	268	271,697	-7,30001E-001	-7,30262E-001	-2,41720E-004	...........
	269	272,707	-7,30066E-001	-7,30462E-001	-4,41720E-004	...........
	270	273,717	-7,30165E-001	-7,30362E-001	-4,41720E-004	...........
	271	274,727	-7,30267E-001	-7,30412E-001	-2,41720E-004	...........
	272	275,737	-7,30343E-001	-7,30412E-001	-4,41720E-004	...........
	273	276,747	-7,30388E-001	-7,30512E-001	-3,41720E-004	...........
	274	277,757	-7,30418E-001	-7,30562E-001	-4,41720E-004	...........
	275	278,767	-7,30452E-001	-7,30612E-001	-2,41720E-004	...........
	276	279,777	-7,30502E-001	-7,30812E-001	-4,41720E-004	...........
	277	280,787	-7,30565E-001	-7,30612E-001	-3,41720E-004	...........
	278	281,797	-7,30626E-001	-7,30612E-001	-4,41720E-004	...........
	279	282,807	-7,30667E-001	-7,31062E-001	-3,41720E-004	...........
	280	283,817	-7,30709E-001	-7,31012E-001	-3,41720E-004	...........
	281	284,827	-7,30786E-001	-7,31062E-001	-3,41720E-004	...........
	282	285,837	-7,30888E-001	-7,31012E-001	-3,41720E-004	...........
	283	286,847	-7,30974E-001	-7,31112E-001	-1,41720E-004	...........
	284	287,857	-7,31031E-001	-7,31262E-001	-4,41720E-004	...........
	285	288,867	-7,31086E-001	-7,31612E-001	-5,41720E-004	...........
	286	289,877	-7,31173E-001	-7,31412E-001	-4,41720E-004	...........
	287	290,887	-7,31287E-001	-7,31312E-001	-3,41720E-004	...........
	288	291,897	-7,31374E-001	-7,31412E-001	-3,41720E-004	...........
	289	292,907	-7,31411E-001	-7,31662E-001	-4,41720E-004	...........
	290	293,917	-7,31445E-001	-7,32212E-001	-3,41720E-004	...........
	291	294,927	-7,31550E-001	-7,32112E-001	-4,41720E-004	...........
	292	295,937	-7,31735E-001	-7,32212E-001	-3,41720E-004	...........
	293	296,947	-7,31935E-001	-7,32162E-001	-4,41720E-004	...........
	294	297,957	-7,32082E-001	-7,32262E-001	-2,41720E-004	...........
	295	298,967	-7,32159E-001	-7,31912E-001	-4,41720E-004	...........
	296	299,977	-7,32167E-001	-7,31862E-001	-4,41720E-004	...........
