EXPLAIN
TAG	CORPOT
TITLE	LABEL	Mats	Test Identifier
DATE	LABEL	21.2.2023	Date
TIME	LABEL	14.36.51	Time
NOTES	NOTES	1	Notes...
	
PSTAT	PSTAT	PCI4G750-47063	Potentiostat
TIMEOUT	QUANT	5,00000E+002	Total Time (s)
SAMPLETIME	QUANT	1,00000E+000	Sample Period (s)
STABILITY	QUANT	0,00000E+000	Stability (mV/s)
AREA	QUANT	1,00000E+000	Sample Area (cm^2)
SEQUENCER	TOGGLE	TRUE	Run as Sequence
PSTATMODEL	IQUANT	37	Pstat Model
PSTATSECTION	LABEL	PCI4G750-47063	Pstat Section
PSTATSERIALNO	LABEL	47063	Pstat Serial Number
CTRLMODE	IQUANT	1	Control Mode
IESTAB	IQUANT	2	I/E Stability
CASPEED	IQUANT	2	Control Amp Speed
CONVENTION	IQUANT	1	Current Convention
ICHRANGE	IQUANT	2	Ich Range
ICHRANGEMODE	TOGGLE	T	Ich Auto Range
ICHOFFSETENABLE	TOGGLE	F	Ich Offset Enable
ICHOFFSET	QUANT	0	Ich Offset (V)
ICHFILTER	IQUANT	3	Ich Filter
VCHRANGE	IQUANT	3	Vch Range
VCHRANGEMODE	TOGGLE	T	Vch Auto Range
VCHOFFSETENABLE	TOGGLE	F	Vch Offset Enable
VCHOFFSET	QUANT	0	Vch Offset (V)
VCHFILTER	IQUANT	3	Vch Filter
ACHRANGE	IQUANT	0	Ach Range
IERANGELOWERLIMIT	IQUANT	3	I/E Range Lower Limit
IERANGEMODE	TOGGLE	F	I/E AutoRange
IERANGE	IQUANT	10	I/E Range
POSFEEDENABLE	TOGGLE	F	Positive Feedback IR Comp
POSFEEDRESISTANCE	QUANT	0	Positive Feedback Resistance (ohm)
DCCALDATE	LABEL	15.11.2022	DC Calibration Date
ACCALDATE	LABEL	15.11.2022	AC Calibration Date
FRAMEWORKVERSION	QUANT	6,33	Framework Version
CURVE	TABLE	495
	Pt	T	Vf	Vm	Ach	Over
	#	s	V vs. Ref.	V	V	bits
	0	1,01003	-7,32662E-001	-7,32662E-001	-1,41720E-004	...........
	1	2,02005	-7,32669E-001	-7,33012E-001	-1,41720E-004	...........
	2	3,03008	-7,32720E-001	-7,33862E-001	-1,41720E-004	...........
	3	4,0401	-7,32888E-001	-7,34212E-001	-1,41720E-004	...........
	4	5,05013	-7,33219E-001	-7,34812E-001	-1,41720E-004	...........
	5	6,06015	-7,33678E-001	-7,35212E-001	-2,41720E-004	...........
	6	7,07018	-7,34189E-001	-7,35712E-001	-1,41720E-004	...........
	7	8,0802	-7,34699E-001	-7,36112E-001	-1,41720E-004	...........
	8	9,09023	-7,35188E-001	-7,36762E-001	-4,17200E-005	...........
	9	10,1003	-7,35668E-001	-7,37112E-001	-1,41720E-004	...........
	10	11,1103	-7,36157E-001	-7,38012E-001	-1,41720E-004	...........
	11	12,1203	-7,36679E-001	-7,38512E-001	-4,17200E-005	...........
	12	13,1303	-7,37246E-001	-7,39012E-001	-1,41720E-004	...........
	13	14,1404	-7,37834E-001	-7,39312E-001	-1,41720E-004	...........
	14	15,1504	-7,38392E-001	-7,39862E-001	-1,41720E-004	...........
	15	16,1604	-7,38892E-001	-7,40112E-001	-4,17200E-005	...........
	16	17,1704	-7,39340E-001	-7,40662E-001	-1,41720E-004	...........
	17	18,1805	-7,39763E-001	-7,41212E-001	-1,41720E-004	...........
	18	19,1905	-7,40191E-001	-7,41512E-001	-1,41720E-004	...........
	19	20,2005	-7,40635E-001	-7,41962E-001	-1,41720E-004	...........
	20	21,2105	-7,41087E-001	-7,42812E-001	-1,41720E-004	...........
	21	22,2206	-7,41557E-001	-7,43012E-001	-1,41720E-004	...........
	22	23,2306	-7,42049E-001	-7,43312E-001	-2,41720E-004	...........
	23	24,2406	-7,42529E-001	-7,43812E-001	-1,41720E-004	...........
	24	25,2506	-7,42965E-001	-7,44262E-001	-1,41720E-004	...........
	25	26,2607	-7,43375E-001	-7,44662E-001	-1,41720E-004	...........
	26	27,2707	-7,43787E-001	-7,45062E-001	-1,41720E-004	...........
	27	28,2807	-7,44203E-001	-7,45412E-001	-1,41720E-004	...........
	28	29,2907	-7,44617E-001	-7,45962E-001	-1,41720E-004	...........
	29	30,3008	-7,45028E-001	-7,46312E-001	-1,41720E-004	...........
	30	31,3108	-7,45444E-001	-7,46612E-001	-1,41720E-004	...........
	31	32,3208	-7,45854E-001	-7,47012E-001	-4,17200E-005	...........
	32	33,3308	-7,46244E-001	-7,47362E-001	-1,41720E-004	...........
	33	34,3409	-7,46619E-001	-7,47912E-001	-1,41720E-004	...........
	34	35,3509	-7,46995E-001	-7,48012E-001	-1,41720E-004	...........
	35	36,3609	-7,47373E-001	-7,48512E-001	-1,41720E-004	...........
	36	37,3709	-7,47742E-001	-7,48912E-001	-4,17200E-005	...........
	37	38,381	-7,48101E-001	-7,49012E-001	-1,41720E-004	...........
	38	39,391	-7,48449E-001	-7,49412E-001	-1,41720E-004	...........
	39	40,401	-7,48772E-001	-7,49662E-001	-1,41720E-004	...........
	40	41,411	-7,49074E-001	-7,50062E-001	-1,41720E-004	...........
	41	42,4211	-7,49377E-001	-7,50462E-001	-1,41720E-004	...........
	42	43,4311	-7,49696E-001	-7,50662E-001	-4,17200E-005	...........
	43	44,4411	-7,50027E-001	-7,50912E-001	-1,41720E-004	...........
	44	45,4511	-7,50350E-001	-7,51412E-001	-2,41720E-004	...........
	45	46,4612	-7,50666E-001	-7,51812E-001	-2,41720E-004	...........
	46	47,4712	-7,51002E-001	-7,52212E-001	-4,17200E-005	...........
	47	48,4812	-7,51366E-001	-7,52212E-001	-1,41720E-004	...........
	48	49,4912	-7,51724E-001	-7,52712E-001	-4,17200E-005	...........
	49	50,5013	-7,52045E-001	-7,52812E-001	-1,41720E-004	...........
	50	51,5113	-7,52331E-001	-7,53212E-001	-1,41720E-004	...........
	51	52,5213	-7,52601E-001	-7,53412E-001	-4,17200E-005	...........
	52	53,5313	-7,52870E-001	-7,53712E-001	-1,41720E-004	...........
	53	54,5414	-7,53144E-001	-7,54112E-001	-1,41720E-004	...........
	54	55,5514	-7,53427E-001	-7,54262E-001	-4,17200E-005	...........
	55	56,5614	-7,53720E-001	-7,54712E-001	-4,17200E-005	...........
	56	57,5714	-7,54015E-001	-7,54712E-001	-1,41720E-004	...........
	57	58,5815	-7,54296E-001	-7,55012E-001	-1,41720E-004	...........
	58	59,5915	-7,54547E-001	-7,55212E-001	-4,17200E-005	...........
	59	60,6015	-7,54769E-001	-7,55262E-001	-1,41720E-004	...........
	60	61,6115	-7,54971E-001	-7,55712E-001	-4,17200E-005	...........
	61	62,6216	-7,55171E-001	-7,55962E-001	-1,41720E-004	...........
	62	63,6316	-7,55395E-001	-7,56262E-001	-4,17200E-005	...........
	63	64,6416	-7,55653E-001	-7,56412E-001	-1,41720E-004	...........
	64	65,6516	-7,55923E-001	-7,56662E-001	-1,41720E-004	...........
	65	66,6617	-7,56178E-001	-7,56812E-001	-1,41720E-004	...........
	66	67,6717	-7,56410E-001	-7,57062E-001	-1,41720E-004	...........
	67	68,6817	-7,56626E-001	-7,57412E-001	-4,17200E-005	...........
	68	69,6917	-7,56842E-001	-7,57312E-001	-1,41720E-004	...........
	69	70,7018	-7,57052E-001	-7,57562E-001	-4,17200E-005	...........
	70	71,7118	-7,57235E-001	-7,57612E-001	-4,17200E-005	...........
	71	72,7218	-7,57385E-001	-7,57812E-001	-4,17200E-005	...........
	72	73,7318	-7,57519E-001	-7,58012E-001	-1,41720E-004	...........
	73	74,7419	-7,57659E-001	-7,58212E-001	-4,17200E-005	...........
	74	75,7519	-7,57819E-001	-7,58412E-001	-4,17200E-005	...........
	75	76,7619	-7,58001E-001	-7,58612E-001	-4,17200E-005	...........
	76	77,7719	-7,58195E-001	-7,58812E-001	-4,17200E-005	...........
	77	78,782	-7,58392E-001	-7,58862E-001	-1,41720E-004	...........
	78	79,792	-7,58578E-001	-7,59062E-001	-1,41720E-004	...........
	79	80,802	-7,58743E-001	-7,59112E-001	-1,41720E-004	...........
	80	81,812	-7,58891E-001	-7,59512E-001	-4,17200E-005	...........
	81	82,8221	-7,59046E-001	-7,59812E-001	-4,17200E-005	...........
	82	83,8321	-7,59232E-001	-7,59612E-001	-1,41720E-004	...........
	83	84,8421	-7,59430E-001	-7,59812E-001	-2,41720E-004	...........
	84	85,8521	-7,59595E-001	-7,60012E-001	-1,41720E-004	...........
	85	86,8622	-7,59723E-001	-7,60112E-001	-1,41720E-004	...........
	86	87,8722	-7,59842E-001	-7,60212E-001	-1,41720E-004	...........
	87	88,8822	-7,59966E-001	-7,60312E-001	-1,41720E-004	...........
	88	89,8922	-7,60089E-001	-7,60462E-001	-1,41720E-004	...........
	89	90,9023	-7,60205E-001	-7,60512E-001	-1,41720E-004	...........
	90	91,9123	-7,60315E-001	-7,60562E-001	-4,17200E-005	...........
	91	92,9223	-7,60417E-001	-7,60812E-001	-1,41720E-004	...........
	92	93,9323	-7,60518E-001	-7,60962E-001	-1,41720E-004	...........
	93	94,9424	-7,60634E-001	-7,60912E-001	-1,41720E-004	...........
	94	95,952	-7,60760E-001	-7,61212E-001	-1,41720E-004	...........
	95	96,962	-7,60888E-001	-7,61362E-001	-4,17200E-005	...........
	96	97,972	-7,61019E-001	-7,61312E-001	-4,17200E-005	...........
	97	98,982	-7,61149E-001	-7,61412E-001	-1,41720E-004	...........
	98	99,992	-7,61258E-001	-7,61412E-001	-1,41720E-004	...........
	99	101,003	-7,61336E-001	-7,61562E-001	-2,41720E-004	...........
	100	102,013	-7,61398E-001	-7,61612E-001	-4,17200E-005	...........
	101	103,023	-7,61464E-001	-7,61862E-001	-4,17200E-005	...........
	102	104,033	-7,61553E-001	-7,61962E-001	-4,17200E-005	...........
	103	105,043	-7,61668E-001	-7,61962E-001	-1,41720E-004	...........
	104	106,053	-7,61789E-001	-7,62012E-001	-1,41720E-004	...........
	105	107,063	-7,61892E-001	-7,62112E-001	-1,41720E-004	...........
	106	108,073	-7,61968E-001	-7,62112E-001	-4,17200E-005	...........
	107	109,083	-7,62026E-001	-7,62062E-001	-1,41720E-004	...........
	108	110,093	-7,62067E-001	-7,62212E-001	-4,17200E-005	...........
	109	111,103	-7,62102E-001	-7,62412E-001	-4,17200E-005	...........
	110	112,113	-7,62154E-001	-7,62412E-001	-4,17200E-005	...........
	111	113,123	-7,62235E-001	-7,62562E-001	-1,41720E-004	...........
	112	114,133	-7,62334E-001	-7,62612E-001	-2,41720E-004	...........
	113	115,143	-7,62432E-001	-7,62612E-001	-1,41720E-004	...........
	114	116,153	-7,62517E-001	-7,62712E-001	-2,41720E-004	...........
	115	117,163	-7,62585E-001	-7,62762E-001	-4,17200E-005	...........
	116	118,173	-7,62647E-001	-7,63012E-001	-1,41720E-004	...........
	117	119,183	-7,62721E-001	-7,63012E-001	-4,17200E-005	...........
	118	120,193	-7,62814E-001	-7,62962E-001	-4,17200E-005	...........
	119	121,203	-7,62902E-001	-7,63012E-001	-1,41720E-004	...........
	120	122,213	-7,62962E-001	-7,63062E-001	-1,41720E-004	...........
	121	123,223	-7,63000E-001	-7,63212E-001	-1,41720E-004	...........
	122	124,233	-7,63038E-001	-7,63162E-001	-4,17200E-005	...........
	123	125,243	-7,63089E-001	-7,63362E-001	-4,17200E-005	...........
	124	126,253	-7,63152E-001	-7,63312E-001	-1,41720E-004	...........
	125	127,263	-7,63220E-001	-7,63412E-001	-4,17200E-005	...........
	126	128,273	-7,63286E-001	-7,63512E-001	-1,41720E-004	...........
	127	129,283	-7,63350E-001	-7,63562E-001	-1,41720E-004	...........
	128	130,293	-7,63419E-001	-7,63712E-001	-1,41720E-004	...........
	129	131,303	-7,63497E-001	-7,63712E-001	-1,41720E-004	...........
	130	132,313	-7,63577E-001	-7,63712E-001	-1,41720E-004	...........
	131	133,323	-7,63644E-001	-7,63662E-001	-1,41720E-004	...........
	132	134,333	-7,63682E-001	-7,63612E-001	-1,41720E-004	...........
	133	135,343	-7,63688E-001	-7,63712E-001	-1,41720E-004	...........
	134	136,353	-7,63683E-001	-7,63912E-001	-4,17200E-005	...........
	135	137,363	-7,63701E-001	-7,64012E-001	-1,41720E-004	...........
	136	138,373	-7,63766E-001	-7,64062E-001	-4,17200E-005	...........
	137	139,383	-7,63863E-001	-7,64112E-001	-1,41720E-004	...........
	138	140,393	-7,63959E-001	-7,64062E-001	-1,41720E-004	...........
	139	141,404	-7,64031E-001	-7,64112E-001	-1,41720E-004	...........
	140	142,414	-7,64070E-001	-7,64012E-001	-1,41720E-004	...........
	141	143,424	-7,64084E-001	-7,64212E-001	-4,17200E-005	...........
	142	144,434	-7,64091E-001	-7,64162E-001	-1,41720E-004	...........
	143	145,444	-7,64110E-001	-7,64212E-001	-1,41720E-004	...........
	144	146,454	-7,64141E-001	-7,64262E-001	-1,41720E-004	...........
	145	147,464	-7,64178E-001	-7,64362E-001	-1,41720E-004	...........
	146	148,474	-7,64223E-001	-7,64412E-001	-1,41720E-004	...........
	147	149,484	-7,64281E-001	-7,64612E-001	-1,41720E-004	...........
	148	150,494	-7,64354E-001	-7,64512E-001	-2,41720E-004	...........
	149	151,504	-7,64430E-001	-7,64412E-001	-4,17200E-005	...........
	150	152,514	-7,64483E-001	-7,64612E-001	-4,17200E-005	...........
	151	153,524	-7,64508E-001	-7,64612E-001	-1,41720E-004	...........
	152	154,534	-7,64531E-001	-7,64712E-001	-1,41720E-004	...........
	153	155,544	-7,64569E-001	-7,64662E-001	-1,41720E-004	...........
	154	156,554	-7,64618E-001	-7,64812E-001	-1,41720E-004	...........
	155	157,564	-7,64666E-001	-7,64762E-001	-2,41720E-004	...........
	156	158,574	-7,64711E-001	-7,64812E-001	-2,41720E-004	...........
	157	159,584	-7,64751E-001	-7,64912E-001	-1,41720E-004	...........
	158	160,594	-7,64790E-001	-7,64912E-001	-1,41720E-004	...........
	159	161,604	-7,64831E-001	-7,64912E-001	-2,41720E-004	...........
	160	162,614	-7,64872E-001	-7,65062E-001	-4,17200E-005	...........
	161	163,624	-7,64912E-001	-7,64962E-001	5,82800E-005	...........
	162	164,634	-7,64948E-001	-7,64962E-001	-1,41720E-004	...........
	163	165,644	-7,64974E-001	-7,65062E-001	-1,41720E-004	...........
	164	166,654	-7,64993E-001	-7,65212E-001	-4,17200E-005	...........
	165	167,664	-7,65028E-001	-7,65362E-001	-2,41720E-004	...........
	166	168,674	-7,65098E-001	-7,65362E-001	-1,41720E-004	...........
	167	169,684	-7,65190E-001	-7,65312E-001	-4,17200E-005	...........
	168	170,694	-7,65271E-001	-7,65312E-001	-1,41720E-004	...........
	169	171,704	-7,65316E-001	-7,65312E-001	-4,17200E-005	...........
	170	172,714	-7,65330E-001	-7,65412E-001	-1,41720E-004	...........
	171	173,724	-7,65336E-001	-7,65412E-001	5,82800E-005	...........
	172	174,734	-7,65352E-001	-7,65462E-001	-1,41720E-004	...........
	173	175,744	-7,65380E-001	-7,65412E-001	-1,41720E-004	...........
	174	176,754	-7,65411E-001	-7,65612E-001	-1,41720E-004	...........
	175	177,764	-7,65446E-001	-7,65612E-001	-1,41720E-004	...........
	176	178,774	-7,65495E-001	-7,65762E-001	5,82800E-005	...........
	177	179,784	-7,65558E-001	-7,65612E-001	-1,41720E-004	...........
	178	180,794	-7,65619E-001	-7,65762E-001	-4,17200E-005	...........
	179	181,805	-7,65664E-001	-7,65712E-001	-2,41720E-004	...........
	180	182,815	-7,65692E-001	-7,65712E-001	-1,41720E-004	...........
	181	183,825	-7,65710E-001	-7,65812E-001	-4,17200E-005	...........
	182	184,835	-7,65726E-001	-7,65762E-001	-1,41720E-004	...........
	183	185,845	-7,65747E-001	-7,65912E-001	-2,41720E-004	...........
	184	186,855	-7,65778E-001	-7,65962E-001	-1,41720E-004	...........
	185	187,865	-7,65824E-001	-7,66012E-001	-1,41720E-004	...........
	186	188,875	-7,65881E-001	-7,65962E-001	-2,41720E-004	...........
	187	189,885	-7,65937E-001	-7,66162E-001	-1,41720E-004	...........
	188	190,895	-7,65988E-001	-7,66212E-001	-2,41720E-004	...........
	189	191,905	-7,66046E-001	-7,66212E-001	-1,41720E-004	...........
	190	192,915	-7,66111E-001	-7,66212E-001	-2,41720E-004	...........
	191	193,925	-7,66163E-001	-7,66112E-001	-1,41720E-004	...........
	192	194,935	-7,66189E-001	-7,66262E-001	-1,41720E-004	...........
	193	195,945	-7,66198E-001	-7,66412E-001	-1,41720E-004	...........
	194	196,955	-7,66223E-001	-7,66462E-001	-4,17200E-005	...........
	195	197,965	-7,66279E-001	-7,66412E-001	5,82800E-005	...........
	196	198,975	-7,66350E-001	-7,66612E-001	-1,41720E-004	...........
	197	199,985	-7,66423E-001	-7,66762E-001	-1,41720E-004	...........
	198	200,995	-7,66499E-001	-7,66562E-001	5,82800E-005	...........
	199	202,005	-7,66572E-001	-7,66612E-001	-1,41720E-004	...........
	200	203,015	-7,66618E-001	-7,66712E-001	-2,41720E-004	...........
	201	204,025	-7,66636E-001	-7,66612E-001	-1,41720E-004	...........
	202	205,035	-7,66643E-001	-7,66612E-001	-1,41720E-004	...........
	203	206,045	-7,66646E-001	-7,66762E-001	-4,17200E-005	...........
	204	207,055	-7,66653E-001	-7,66762E-001	-1,41720E-004	...........
	205	208,065	-7,66676E-001	-7,66812E-001	-4,17200E-005	...........
	206	209,075	-7,66715E-001	-7,66812E-001	-1,41720E-004	...........
	207	210,085	-7,66756E-001	-7,66812E-001	-2,41720E-004	...........
	208	211,095	-7,66789E-001	-7,66912E-001	-4,17200E-005	...........
	209	212,105	-7,66819E-001	-7,67012E-001	-1,41720E-004	...........
	210	213,115	-7,66858E-001	-7,67012E-001	-4,17200E-005	...........
	211	214,125	-7,66911E-001	-7,67112E-001	-1,41720E-004	...........
	212	215,135	-7,66973E-001	-7,67212E-001	-4,17200E-005	...........
	213	216,145	-7,67037E-001	-7,67112E-001	-4,17200E-005	...........
	214	217,155	-7,67095E-001	-7,67212E-001	-1,41720E-004	...........
	215	218,165	-7,67138E-001	-7,67212E-001	-1,41720E-004	...........
	216	219,175	-7,67171E-001	-7,67412E-001	-4,17200E-005	...........
	217	220,185	-7,67208E-001	-7,67212E-001	-1,41720E-004	...........
	218	221,195	-7,67247E-001	-7,67262E-001	-4,17200E-005	...........
	219	222,206	-7,67273E-001	-7,67362E-001	-1,41720E-004	...........
	220	223,216	-7,67285E-001	-7,67312E-001	-1,41720E-004	...........
	221	224,226	-7,67298E-001	-7,67412E-001	-4,17200E-005	...........
	222	225,236	-7,67320E-001	-7,67412E-001	-4,17200E-005	...........
	223	226,246	-7,67352E-001	-7,67562E-001	-1,41720E-004	...........
	224	227,256	-7,67395E-001	-7,67512E-001	-2,41720E-004	...........
	225	228,266	-7,67445E-001	-7,67612E-001	-2,41720E-004	...........
	226	229,276	-7,67499E-001	-7,67712E-001	-4,17200E-005	...........
	227	230,286	-7,67552E-001	-7,67612E-001	-4,17200E-005	...........
	228	231,296	-7,67603E-001	-7,67812E-001	-4,17200E-005	...........
	229	232,306	-7,67651E-001	-7,67812E-001	-1,41720E-004	...........
	230	233,316	-7,67700E-001	-7,67812E-001	-1,41720E-004	...........
	231	234,326	-7,67749E-001	-7,67812E-001	-2,41720E-004	...........
	232	235,336	-7,67787E-001	-7,67862E-001	-1,41720E-004	...........
	233	236,346	-7,67815E-001	-7,68012E-001	-1,41720E-004	...........
	234	237,356	-7,67848E-001	-7,68012E-001	-1,41720E-004	...........
	235	238,366	-7,67896E-001	-7,68012E-001	-4,17200E-005	...........
	236	239,376	-7,67950E-001	-7,68112E-001	-1,41720E-004	...........
	237	240,386	-7,67998E-001	-7,68062E-001	-1,41720E-004	...........
	238	241,396	-7,68037E-001	-7,68162E-001	-4,17200E-005	...........
	239	242,406	-7,68070E-001	-7,68112E-001	-1,41720E-004	...........
	240	243,416	-7,68098E-001	-7,68212E-001	-1,41720E-004	...........
	241	244,426	-7,68124E-001	-7,68212E-001	-4,17200E-005	...........
	242	245,436	-7,68152E-001	-7,68212E-001	-1,41720E-004	...........
	243	246,446	-7,68181E-001	-7,68312E-001	-4,17200E-005	...........
	244	247,456	-7,68213E-001	-7,68412E-001	-4,17200E-005	...........
	245	248,466	-7,68255E-001	-7,68412E-001	-1,41720E-004	...........
	246	249,476	-7,68309E-001	-7,68412E-001	-1,41720E-004	...........
	247	250,486	-7,68361E-001	-7,68512E-001	-4,17200E-005	...........
	248	251,496	-7,68406E-001	-7,68562E-001	-4,17200E-005	...........
	249	252,506	-7,68450E-001	-7,68612E-001	-4,17200E-005	...........
	250	253,516	-7,68502E-001	-7,68762E-001	-4,17200E-005	...........
	251	254,526	-7,68562E-001	-7,68662E-001	-1,41720E-004	...........
	252	255,536	-7,68624E-001	-7,68812E-001	-4,17200E-005	...........
	253	256,546	-7,68681E-001	-7,68862E-001	-2,41720E-004	...........
	254	257,556	-7,68733E-001	-7,68862E-001	-1,41720E-004	...........
	255	258,566	-7,68785E-001	-7,68912E-001	-1,41720E-004	...........
	256	259,576	-7,68833E-001	-7,69012E-001	-4,17200E-005	...........
	257	260,586	-7,68880E-001	-7,69062E-001	-4,17200E-005	...........
	258	261,596	-7,68931E-001	-7,69012E-001	-2,41720E-004	...........
	259	262,607	-7,68981E-001	-7,69112E-001	-4,17200E-005	...........
	260	263,617	-7,69024E-001	-7,69212E-001	-2,41720E-004	...........
	261	264,627	-7,69067E-001	-7,69212E-001	-1,41720E-004	...........
	262	265,637	-7,69115E-001	-7,69212E-001	-1,41720E-004	...........
	263	266,647	-7,69162E-001	-7,69212E-001	-4,17200E-005	...........
	264	267,657	-7,69198E-001	-7,69412E-001	-1,41720E-004	...........
	265	268,667	-7,69233E-001	-7,69412E-001	-4,17200E-005	...........
	266	269,677	-7,69283E-001	-7,69462E-001	-4,17200E-005	...........
	267	270,687	-7,69344E-001	-7,69512E-001	-1,41720E-004	...........
	268	271,697	-7,69406E-001	-7,69612E-001	-4,17200E-005	...........
	269	272,707	-7,69463E-001	-7,69512E-001	-4,17200E-005	...........
	270	273,717	-7,69510E-001	-7,69612E-001	-4,17200E-005	...........
	271	274,727	-7,69545E-001	-7,69612E-001	5,82800E-005	...........
	272	275,737	-7,69570E-001	-7,69712E-001	-1,41720E-004	...........
	273	276,747	-7,69601E-001	-7,69812E-001	-1,41720E-004	...........
	274	277,757	-7,69648E-001	-7,69812E-001	-4,17200E-005	...........
	275	278,767	-7,69706E-001	-7,69862E-001	-1,41720E-004	...........
	276	279,777	-7,69766E-001	-7,69962E-001	-1,41720E-004	...........
	277	280,787	-7,69823E-001	-7,70012E-001	-2,41720E-004	...........
	278	281,797	-7,69879E-001	-7,69962E-001	-4,17200E-005	...........
	279	282,807	-7,69931E-001	-7,70062E-001	-1,41720E-004	...........
	280	283,817	-7,69974E-001	-7,70162E-001	-1,41720E-004	...........
	281	284,827	-7,70018E-001	-7,70212E-001	-4,17200E-005	...........
	282	285,837	-7,70072E-001	-7,70262E-001	-4,17200E-005	...........
	283	286,847	-7,70135E-001	-7,70262E-001	-4,17200E-005	...........
	284	287,857	-7,70193E-001	-7,70312E-001	-2,41720E-004	...........
	285	288,867	-7,70240E-001	-7,70412E-001	-1,41720E-004	...........
	286	289,877	-7,70285E-001	-7,70512E-001	-1,41720E-004	...........
	287	290,887	-7,70337E-001	-7,70412E-001	-1,41720E-004	...........
	288	291,897	-7,70392E-001	-7,70512E-001	-1,41720E-004	...........
	289	292,907	-7,70439E-001	-7,70712E-001	-1,41720E-004	...........
	290	293,917	-7,70488E-001	-7,70662E-001	-1,41720E-004	...........
	291	294,927	-7,70552E-001	-7,70812E-001	-1,41720E-004	...........
	292	295,937	-7,70626E-001	-7,70812E-001	-1,41720E-004	...........
	293	296,947	-7,70702E-001	-7,71012E-001	-4,17200E-005	...........
	294	297,957	-7,70779E-001	-7,71012E-001	-1,41720E-004	...........
	295	298,967	-7,70860E-001	-7,71012E-001	-1,41720E-004	...........
	296	299,977	-7,70933E-001	-7,71012E-001	-1,41720E-004	...........
	297	300,987	-7,70982E-001	-7,71012E-001	-1,41720E-004	...........
	298	301,997	-7,71011E-001	-7,71212E-001	-1,41720E-004	...........
	299	303,008	-7,71037E-001	-7,71162E-001	-1,41720E-004	...........
	300	304,018	-7,71078E-001	-7,71212E-001	-2,41720E-004	...........
	301	305,028	-7,71126E-001	-7,71212E-001	-2,41720E-004	...........
	302	306,038	-7,71171E-001	-7,71412E-001	-1,41720E-004	...........
	303	307,048	-7,71217E-001	-7,71412E-001	-1,41720E-004	...........
	304	308,058	-7,71278E-001	-7,71562E-001	-1,41720E-004	...........
	305	309,068	-7,71351E-001	-7,71412E-001	-1,41720E-004	...........
	306	310,078	-7,71420E-001	-7,71712E-001	-1,41720E-004	...........
	307	311,088	-7,71481E-001	-7,71612E-001	-4,17200E-005	...........
	308	312,098	-7,71538E-001	-7,71662E-001	-1,41720E-004	...........
	309	313,108	-7,71591E-001	-7,71712E-001	-1,41720E-004	...........
	310	314,118	-7,71635E-001	-7,71762E-001	-1,41720E-004	...........
	311	315,128	-7,71674E-001	-7,71862E-001	-4,17200E-005	...........
	312	316,138	-7,71720E-001	-7,71912E-001	-1,41720E-004	...........
	313	317,148	-7,71777E-001	-7,72012E-001	-1,41720E-004	...........
	314	318,158	-7,71845E-001	-7,72062E-001	-1,41720E-004	...........
	315	319,168	-7,71916E-001	-7,72062E-001	-1,41720E-004	...........
	316	320,178	-7,71982E-001	-7,72162E-001	-1,41720E-004	...........
	317	321,188	-7,72039E-001	-7,72162E-001	-1,41720E-004	...........
	318	322,198	-7,72088E-001	-7,72212E-001	-1,41720E-004	...........
	319	323,208	-7,72132E-001	-7,72312E-001	-1,41720E-004	...........
	320	324,218	-7,72179E-001	-7,72412E-001	-1,41720E-004	...........
	321	325,228	-7,72239E-001	-7,72512E-001	-4,17200E-005	...........
	322	326,238	-7,72313E-001	-7,72512E-001	-1,41720E-004	...........
	323	327,248	-7,72393E-001	-7,72612E-001	-1,41720E-004	...........
	324	328,258	-7,72467E-001	-7,72612E-001	-4,17200E-005	...........
	325	329,268	-7,72528E-001	-7,72612E-001	-4,17200E-005	...........
	326	330,278	-7,72575E-001	-7,72762E-001	-4,17200E-005	...........
	327	331,288	-7,72618E-001	-7,72812E-001	-1,41720E-004	...........
	328	332,298	-7,72668E-001	-7,72812E-001	-1,41720E-004	...........
	329	333,308	-7,72724E-001	-7,72862E-001	-1,41720E-004	...........
	330	334,318	-7,72778E-001	-7,72912E-001	-4,17200E-005	...........
	331	335,328	-7,72822E-001	-7,72912E-001	-1,41720E-004	...........
	332	336,338	-7,72861E-001	-7,73012E-001	-1,41720E-004	...........
	333	337,348	-7,72901E-001	-7,73112E-001	-1,41720E-004	...........
	334	338,358	-7,72951E-001	-7,73162E-001	-2,41720E-004	...........
	335	339,368	-7,73014E-001	-7,73212E-001	-4,17200E-005	...........
	336	340,378	-7,73082E-001	-7,73212E-001	-1,41720E-004	...........
	337	341,388	-7,73145E-001	-7,73412E-001	-4,17200E-005	...........
	338	342,398	-7,73204E-001	-7,73312E-001	-1,41720E-004	...........
	339	343,409	-7,73262E-001	-7,73412E-001	-1,41720E-004	...........
	340	344,419	-7,73318E-001	-7,73612E-001	-4,17200E-005	...........
	341	345,429	-7,73378E-001	-7,73612E-001	-1,41720E-004	...........
	342	346,439	-7,73452E-001	-7,73612E-001	-1,41720E-004	...........
	343	347,449	-7,73526E-001	-7,73662E-001	-1,41720E-004	...........
	344	348,459	-7,73585E-001	-7,73712E-001	-4,17200E-005	...........
	345	349,469	-7,73629E-001	-7,73712E-001	-1,41720E-004	...........
	346	350,479	-7,73666E-001	-7,73912E-001	-1,41720E-004	...........
	347	351,489	-7,73713E-001	-7,73962E-001	-1,41720E-004	...........
	348	352,499	-7,73779E-001	-7,74012E-001	-4,17200E-005	...........
	349	353,509	-7,73860E-001	-7,74162E-001	-1,41720E-004	...........
	350	354,519	-7,73948E-001	-7,74212E-001	-4,17200E-005	...........
	351	355,529	-7,74035E-001	-7,74212E-001	-2,41720E-004	...........
	352	356,539	-7,74114E-001	-7,74212E-001	-1,41720E-004	...........
	353	357,549	-7,74173E-001	-7,74362E-001	-1,41720E-004	...........
	354	358,559	-7,74218E-001	-7,74312E-001	-4,17200E-005	...........
	355	359,569	-7,74260E-001	-7,74412E-001	-1,41720E-004	...........
	356	360,579	-7,74302E-001	-7,74412E-001	-1,41720E-004	...........
	357	361,589	-7,74345E-001	-7,74512E-001	-1,41720E-004	...........
	358	362,599	-7,74392E-001	-7,74662E-001	-1,41720E-004	...........
	359	363,609	-7,74452E-001	-7,74712E-001	-4,17200E-005	...........
	360	364,619	-7,74530E-001	-7,74762E-001	-4,17200E-005	...........
	361	365,629	-7,74614E-001	-7,74812E-001	-2,41720E-004	...........
	362	366,639	-7,74690E-001	-7,74812E-001	-1,41720E-004	...........
	363	367,649	-7,74750E-001	-7,74912E-001	-4,17200E-005	...........
	364	368,659	-7,74799E-001	-7,75012E-001	-4,17200E-005	...........
	365	369,669	-7,74851E-001	-7,75012E-001	-4,17200E-005	...........
	366	370,679	-7,74909E-001	-7,75062E-001	-1,41720E-004	...........
	367	371,689	-7,74969E-001	-7,75212E-001	-4,17200E-005	...........
	368	372,699	-7,75028E-001	-7,75212E-001	-1,41720E-004	...........
	369	373,709	-7,75092E-001	-7,75262E-001	-1,41720E-004	...........
	370	374,719	-7,75156E-001	-7,75312E-001	-1,41720E-004	...........
	371	375,729	-7,75212E-001	-7,75362E-001	-4,17200E-005	...........
	372	376,739	-7,75265E-001	-7,75512E-001	-1,41720E-004	...........
	373	377,749	-7,75324E-001	-7,75612E-001	-4,17200E-005	...........
	374	378,759	-7,75402E-001	-7,75812E-001	-4,17200E-005	...........
	375	379,769	-7,75502E-001	-7,75712E-001	-1,41720E-004	...........
	376	380,779	-7,75606E-001	-7,75762E-001	-1,41720E-004	...........
	377	381,789	-7,75688E-001	-7,75812E-001	-1,41720E-004	...........
	378	382,799	-7,75740E-001	-7,75812E-001	-4,17200E-005	...........
	379	383,81	-7,75775E-001	-7,76012E-001	-1,41720E-004	...........
	380	384,82	-7,75817E-001	-7,76062E-001	-1,41720E-004	...........
	381	385,83	-7,75878E-001	-7,76012E-001	-1,41720E-004	...........
	382	386,84	-7,75948E-001	-7,76112E-001	-1,41720E-004	...........
	383	387,85	-7,76007E-001	-7,76112E-001	-4,17200E-005	...........
	384	388,86	-7,76053E-001	-7,76212E-001	-1,41720E-004	...........
	385	389,87	-7,76095E-001	-7,76262E-001	-4,17200E-005	...........
	386	390,88	-7,76145E-001	-7,76462E-001	-1,41720E-004	...........
	387	391,89	-7,76212E-001	-7,76412E-001	-4,17200E-005	...........
	388	392,9	-7,76290E-001	-7,76412E-001	-1,41720E-004	...........
	389	393,91	-7,76360E-001	-7,76512E-001	-1,41720E-004	...........
	390	394,92	-7,76413E-001	-7,76612E-001	-1,41720E-004	...........
	391	395,93	-7,76461E-001	-7,76662E-001	-2,41720E-004	...........
	392	396,94	-7,76519E-001	-7,76712E-001	-2,41720E-004	...........
	393	397,95	-7,76584E-001	-7,76712E-001	-1,41720E-004	...........
	394	398,96	-7,76643E-001	-7,76812E-001	-4,17200E-005	...........
	395	399,97	-7,76696E-001	-7,76912E-001	-1,41720E-004	...........
	396	400,98	-7,76752E-001	-7,77012E-001	-1,41720E-004	...........
	397	401,99	-7,76820E-001	-7,77012E-001	-1,41720E-004	...........
	398	403	-7,76895E-001	-7,77062E-001	-1,41720E-004	...........
	399	404,01	-7,76962E-001	-7,77062E-001	-1,41720E-004	...........
	400	405,02	-7,77016E-001	-7,77362E-001	-1,41720E-004	...........
	401	406,03	-7,77076E-001	-7,77312E-001	-4,17200E-005	...........
	402	407,04	-7,77155E-001	-7,77412E-001	5,82800E-005	...........
	403	408,05	-7,77243E-001	-7,77412E-001	-1,41720E-004	...........
	404	409,06	-7,77319E-001	-7,77412E-001	-1,41720E-004	...........
	405	410,07	-7,77374E-001	-7,77512E-001	-4,17200E-005	...........
	406	411,08	-7,77414E-001	-7,77612E-001	-4,17200E-005	...........
	407	412,09	-7,77458E-001	-7,77612E-001	-1,41720E-004	...........
	408	413,1	-7,77512E-001	-7,77712E-001	-1,41720E-004	...........
	409	414,11	-7,77572E-001	-7,77712E-001	-1,41720E-004	...........
	410	415,12	-7,77629E-001	-7,77812E-001	-1,41720E-004	...........
	411	416,13	-7,77684E-001	-7,77862E-001	-4,17200E-005	...........
	412	417,14	-7,77740E-001	-7,77962E-001	-1,41720E-004	...........
	413	418,15	-7,77802E-001	-7,78012E-001	-1,41720E-004	...........
	414	419,16	-7,77870E-001	-7,78062E-001	-4,17200E-005	...........
	415	420,17	-7,77937E-001	-7,78062E-001	-1,41720E-004	...........
	416	421,18	-7,77997E-001	-7,78212E-001	-4,17200E-005	...........
	417	422,19	-7,78051E-001	-7,78212E-001	-1,41720E-004	...........
	418	423,201	-7,78107E-001	-7,78312E-001	-1,41720E-004	...........
	419	424,211	-7,78169E-001	-7,78412E-001	-4,17200E-005	...........
	420	425,221	-7,78237E-001	-7,78462E-001	5,82800E-005	...........
	421	426,231	-7,78312E-001	-7,78612E-001	-1,41720E-004	...........
	422	427,241	-7,78392E-001	-7,78512E-001	-1,41720E-004	...........
	423	428,251	-7,78465E-001	-7,78562E-001	-1,41720E-004	...........
	424	429,261	-7,78518E-001	-7,78612E-001	-1,41720E-004	...........
	425	430,271	-7,78552E-001	-7,78712E-001	-1,41720E-004	...........
	426	431,281	-7,78587E-001	-7,78812E-001	-1,41720E-004	...........
	427	432,291	-7,78638E-001	-7,78862E-001	-1,41720E-004	...........
	428	433,301	-7,78709E-001	-7,79012E-001	-1,41720E-004	...........
	429	434,311	-7,78790E-001	-7,78962E-001	-4,17200E-005	...........
	430	435,321	-7,78870E-001	-7,79012E-001	-1,41720E-004	...........
	431	436,331	-7,78936E-001	-7,79162E-001	-4,17200E-005	...........
	432	437,341	-7,78992E-001	-7,79112E-001	-1,41720E-004	...........
	433	438,351	-7,79045E-001	-7,79212E-001	-4,17200E-005	...........
	434	439,361	-7,79098E-001	-7,79312E-001	-1,41720E-004	...........
	435	440,371	-7,79154E-001	-7,79312E-001	-1,41720E-004	...........
	436	441,381	-7,79214E-001	-7,79462E-001	-4,17200E-005	...........
	437	442,391	-7,79278E-001	-7,79412E-001	-1,41720E-004	...........
	438	443,401	-7,79342E-001	-7,79562E-001	-4,17200E-005	...........
	439	444,411	-7,79404E-001	-7,79612E-001	-4,17200E-005	...........
	440	445,421	-7,79466E-001	-7,79612E-001	-1,41720E-004	...........
	441	446,431	-7,79528E-001	-7,79712E-001	-4,17200E-005	...........
	442	447,441	-7,79587E-001	-7,79812E-001	-4,17200E-005	...........
	443	448,451	-7,79646E-001	-7,79812E-001	-1,41720E-004	...........
	444	449,461	-7,79708E-001	-7,79812E-001	-4,17200E-005	...........
	445	450,471	-7,79764E-001	-7,80012E-001	-1,41720E-004	...........
	446	451,481	-7,79818E-001	-7,80012E-001	-1,41720E-004	...........
	447	452,491	-7,79879E-001	-7,80062E-001	-1,41720E-004	...........
	448	453,501	-7,79946E-001	-7,80162E-001	-4,17200E-005	...........
	449	454,511	-7,80012E-001	-7,80212E-001	-1,41720E-004	...........
	450	455,521	-7,80078E-001	-7,80312E-001	-4,17200E-005	...........
	451	456,531	-7,80148E-001	-7,80412E-001	-2,41720E-004	...........
	452	457,541	-7,80226E-001	-7,80562E-001	-1,41720E-004	...........
	453	458,551	-7,80317E-001	-7,80612E-001	-2,41720E-004	...........
	454	459,561	-7,80415E-001	-7,80612E-001	-4,17200E-005	...........
	455	460,571	-7,80504E-001	-7,80612E-001	-4,17200E-005	...........
	456	461,581	-7,80569E-001	-7,80712E-001	-4,17200E-005	...........
	457	462,591	-7,80615E-001	-7,80812E-001	-4,17200E-005	...........
	458	463,602	-7,80659E-001	-7,80812E-001	-4,17200E-005	...........
	459	464,612	-7,80713E-001	-7,80912E-001	-4,17200E-005	...........
	460	465,622	-7,80772E-001	-7,80912E-001	-1,41720E-004	...........
	461	466,632	-7,80829E-001	-7,81012E-001	-1,41720E-004	...........
	462	467,642	-7,80884E-001	-7,81062E-001	-4,17200E-005	...........
	463	468,652	-7,80939E-001	-7,81112E-001	-4,17200E-005	...........
	464	469,662	-7,80997E-001	-7,81212E-001	-1,41720E-004	...........
	465	470,672	-7,81058E-001	-7,81212E-001	-1,41720E-004	...........
	466	471,682	-7,81119E-001	-7,81312E-001	-1,41720E-004	...........
	467	472,692	-7,81177E-001	-7,81312E-001	-4,17200E-005	...........
	468	473,702	-7,81232E-001	-7,81412E-001	-1,41720E-004	...........
	469	474,712	-7,81286E-001	-7,81512E-001	-4,17200E-005	...........
	470	475,722	-7,81344E-001	-7,81512E-001	-1,41720E-004	...........
	471	476,732	-7,81408E-001	-7,81612E-001	-1,41720E-004	...........
	472	477,742	-7,81471E-001	-7,81612E-001	-4,17200E-005	...........
	473	478,752	-7,81530E-001	-7,81712E-001	-1,41720E-004	...........
	474	479,762	-7,81584E-001	-7,81762E-001	-1,41720E-004	...........
	475	480,772	-7,81639E-001	-7,81812E-001	-4,17200E-005	...........
	476	481,782	-7,81697E-001	-7,81912E-001	-1,41720E-004	...........
	477	482,792	-7,81759E-001	-7,81962E-001	-4,17200E-005	...........
	478	483,802	-7,81823E-001	-7,81962E-001	-1,41720E-004	...........
	479	484,812	-7,81883E-001	-7,82012E-001	-1,41720E-004	...........
	480	485,822	-7,81937E-001	-7,82212E-001	-1,41720E-004	...........
	481	486,832	-7,81993E-001	-7,82212E-001	-1,41720E-004	...........
	482	487,842	-7,82061E-001	-7,82212E-001	5,82800E-005	...........
	483	488,852	-7,82130E-001	-7,82212E-001	-1,41720E-004	...........
	484	489,862	-7,82180E-001	-7,82212E-001	-1,41720E-004	...........
	485	490,872	-7,82208E-001	-7,82312E-001	-2,41720E-004	...........
	486	491,882	-7,82228E-001	-7,82412E-001	-4,17200E-005	...........
	487	492,892	-7,82263E-001	-7,82512E-001	-4,17200E-005	...........
	488	493,902	-7,82321E-001	-7,82512E-001	-1,41720E-004	...........
	489	494,912	-7,82394E-001	-7,82612E-001	-4,17200E-005	...........
	490	495,922	-7,82467E-001	-7,82662E-001	-4,17200E-005	...........
	491	496,932	-7,82535E-001	-7,82762E-001	-1,41720E-004	...........
	492	497,942	-7,82602E-001	-7,82812E-001	-1,41720E-004	...........
	493	498,952	-7,82670E-001	-7,82812E-001	-1,41720E-004	...........
	494	499,962	-7,82732E-001	-7,82862E-001	-4,17200E-005	...........
