EXPLAIN
TAG	CORPOT
TITLE	LABEL	Mats	Test Identifier
DATE	LABEL	1.3.2023	Date
TIME	LABEL	10.15.07	Time
NOTES	NOTES	1	Notes...
	
PSTAT	PSTAT	PCI4G750-47063	Potentiostat
TIMEOUT	QUANT	3,60000E+003	Total Time (s)
SAMPLETIME	QUANT	1,00000E+000	Sample Period (s)
STABILITY	QUANT	0,00000E+000	Stability (mV/s)
AREA	QUANT	1,00000E+000	Sample Area (cm^2)
SEQUENCER	TOGGLE	TRUE	Run as Sequence
PSTATMODEL	IQUANT	37	Pstat Model
PSTATSECTION	LABEL	PCI4G750-47063	Pstat Section
PSTATSERIALNO	LABEL	47063	Pstat Serial Number
CTRLMODE	IQUANT	1	Control Mode
IESTAB	IQUANT	2	I/E Stability
CASPEED	IQUANT	2	Control Amp Speed
CONVENTION	IQUANT	1	Current Convention
ICHRANGE	IQUANT	2	Ich Range
ICHRANGEMODE	TOGGLE	T	Ich Auto Range
ICHOFFSETENABLE	TOGGLE	F	Ich Offset Enable
ICHOFFSET	QUANT	0	Ich Offset (V)
ICHFILTER	IQUANT	3	Ich Filter
VCHRANGE	IQUANT	3	Vch Range
VCHRANGEMODE	TOGGLE	T	Vch Auto Range
VCHOFFSETENABLE	TOGGLE	F	Vch Offset Enable
VCHOFFSET	QUANT	0	Vch Offset (V)
VCHFILTER	IQUANT	3	Vch Filter
ACHRANGE	IQUANT	0	Ach Range
IERANGELOWERLIMIT	IQUANT	3	I/E Range Lower Limit
IERANGEMODE	TOGGLE	F	I/E AutoRange
IERANGE	IQUANT	10	I/E Range
POSFEEDENABLE	TOGGLE	F	Positive Feedback IR Comp
POSFEEDRESISTANCE	QUANT	0	Positive Feedback Resistance (ohm)
DCCALDATE	LABEL	15.11.2022	DC Calibration Date
ACCALDATE	LABEL	15.11.2022	AC Calibration Date
FRAMEWORKVERSION	QUANT	6,33	Framework Version
CURVE	TABLE	1397
	Pt	T	Vf	Vm	Ach	Over
	#	s	V vs. Ref.	V	V	bits
	0	1,01003	-7,07562E-001	-7,07562E-001	-1,41720E-004	...........
	1	2,02005	-7,07563E-001	-7,07612E-001	-4,17200E-005	...........
	2	3,03008	-7,07563E-001	-7,07312E-001	-4,17200E-005	...........
	3	4,0401	-7,07546E-001	-7,07412E-001	-2,41720E-004	...........
	4	5,05013	-7,07484E-001	-7,06412E-001	-1,41720E-004	...........
	5	6,06015	-7,07327E-001	-7,06012E-001	-1,41720E-004	...........
	6	7,07018	-7,07057E-001	-7,07212E-001	5,82800E-005	...........
	7	8,0802	-7,06795E-001	-7,07062E-001	-1,41720E-004	...........
	8	9,09023	-7,06709E-001	-7,07012E-001	-1,41720E-004	...........
	9	10,1003	-7,06764E-001	-7,05412E-001	-4,17200E-005	...........
	10	11,1103	-7,06736E-001	-7,05712E-001	-4,17200E-005	...........
	11	12,1203	-7,06480E-001	-7,05212E-001	-1,41720E-004	...........
	12	13,1303	-7,06112E-001	-7,07012E-001	-1,41720E-004	...........
	13	14,1404	-7,05932E-001	-7,08362E-001	-4,17200E-005	...........
	14	15,1504	-7,06185E-001	-7,08012E-001	-4,17200E-005	...........
	15	16,1604	-7,06778E-001	-7,06912E-001	-2,41720E-004	...........
	16	17,1704	-7,07308E-001	-7,06812E-001	-4,17200E-005	...........
	17	18,1805	-7,07494E-001	-7,08212E-001	-1,41720E-004	...........
	18	19,1905	-7,07467E-001	-7,07912E-001	-1,41720E-004	...........
	19	20,2005	-7,07481E-001	-7,06712E-001	-1,41720E-004	...........
	20	21,2105	-7,07516E-001	-7,06712E-001	-1,41720E-004	...........
	21	22,2206	-7,07401E-001	-7,06512E-001	-1,41720E-004	...........
	22	23,2306	-7,07145E-001	-7,07162E-001	-4,17200E-005	...........
	23	24,2406	-7,06921E-001	-7,07012E-001	-2,41720E-004	...........
	24	25,2506	-7,06850E-001	-7,07112E-001	-1,41720E-004	...........
	25	26,2607	-7,06936E-001	-7,08762E-001	-1,41720E-004	...........
	26	27,2707	-7,07218E-001	-7,10212E-001	-1,41720E-004	...........
	27	28,2807	-7,07783E-001	-7,09612E-001	-1,41720E-004	...........
	28	29,2907	-7,08572E-001	-7,11412E-001	-4,17200E-005	...........
	29	30,3008	-7,09392E-001	-7,10812E-001	-4,17200E-005	...........
	30	31,3108	-7,10066E-001	-7,09562E-001	-4,17200E-005	...........
	31	32,3208	-7,10407E-001	-7,08712E-001	-2,41720E-004	...........
	32	33,3308	-7,10280E-001	-7,08612E-001	-4,17200E-005	...........
	33	34,3409	-7,09804E-001	-7,09062E-001	-1,41720E-004	...........
	34	35,3509	-7,09312E-001	-7,09762E-001	-1,41720E-004	...........
	35	36,3609	-7,09081E-001	-7,09412E-001	-4,17200E-005	...........
	36	37,3709	-7,09188E-001	-7,12412E-001	-4,17200E-005	...........
	37	38,381	-7,09622E-001	-7,11362E-001	-4,17200E-005	...........
	38	39,391	-7,10278E-001	-7,10762E-001	-4,17200E-005	...........
	39	40,401	-7,10852E-001	-7,10512E-001	-4,17200E-005	...........
	40	41,411	-7,11061E-001	-7,09962E-001	-1,41720E-004	...........
	41	42,4211	-7,10888E-001	-7,09012E-001	-4,17200E-005	...........
	42	43,4311	-7,10463E-001	-7,08912E-001	-1,41720E-004	...........
	43	44,4411	-7,09930E-001	-7,08812E-001	-1,41720E-004	...........
	44	45,4511	-7,09433E-001	-7,08812E-001	-1,41720E-004	...........
	45	46,4612	-7,09098E-001	-7,09712E-001	-1,41720E-004	...........
	46	47,4712	-7,09001E-001	-7,09912E-001	-4,17200E-005	...........
	47	48,4812	-7,09133E-001	-7,09312E-001	5,82800E-005	...........
	48	49,4912	-7,09357E-001	-7,09612E-001	-4,17200E-005	...........
	49	50,5013	-7,09503E-001	-7,09012E-001	-1,41720E-004	...........
	50	51,5113	-7,09508E-001	-7,09312E-001	-4,17200E-005	...........
	51	52,5213	-7,09409E-001	-7,08612E-001	-4,17200E-005	...........
	52	53,5313	-7,09236E-001	-7,07962E-001	-1,41720E-004	...........
	53	54,5414	-7,08946E-001	-7,06512E-001	-1,41720E-004	...........
	54	55,5514	-7,08467E-001	-7,06762E-001	-4,17200E-005	...........
	55	56,5614	-7,07827E-001	-7,05712E-001	5,82800E-005	...........
	56	57,5714	-7,07159E-001	-7,05962E-001	-2,41720E-004	...........
	57	58,5815	-7,06573E-001	-7,04962E-001	-1,41720E-004	...........
	58	59,5915	-7,06094E-001	-7,05412E-001	-4,17200E-005	...........
	59	60,6015	-7,05726E-001	-7,05762E-001	-4,17200E-005	...........
	60	61,6115	-7,05516E-001	-7,05662E-001	-1,41720E-004	...........
	61	62,6216	-7,05490E-001	-7,06112E-001	-4,17200E-005	...........
	62	63,6316	-7,05588E-001	-7,05462E-001	-4,17200E-005	...........
	63	64,6416	-7,05709E-001	-7,06262E-001	-1,41720E-004	...........
	64	65,6516	-7,05795E-001	-7,05612E-001	-1,41720E-004	...........
	65	66,6617	-7,05852E-001	-7,06312E-001	-1,41720E-004	...........
	66	67,6717	-7,05926E-001	-7,07162E-001	-1,41720E-004	...........
	67	68,6817	-7,06207E-001	-7,12712E-001	-2,41720E-004	...........
	68	69,6917	-7,07055E-001	-7,12212E-001	-1,41720E-004	...........
	69	70,7018	-7,08570E-001	-7,12212E-001	-4,17200E-005	...........
	70	71,7118	-7,10241E-001	-7,11462E-001	-4,17200E-005	...........
	71	72,7218	-7,11388E-001	-7,11012E-001	-4,17200E-005	...........
	72	73,7318	-7,11780E-001	-7,10762E-001	-4,17200E-005	...........
	73	74,7419	-7,11638E-001	-7,11012E-001	-4,17200E-005	...........
	74	75,7519	-7,11324E-001	-7,11212E-001	-1,41720E-004	...........
	75	76,7619	-7,11109E-001	-7,11512E-001	-1,41720E-004	...........
	76	77,7719	-7,11076E-001	-7,11112E-001	5,82800E-005	...........
	77	78,782	-7,11141E-001	-7,10662E-001	-4,17200E-005	...........
	78	79,792	-7,11149E-001	-7,10412E-001	-1,41720E-004	...........
	79	80,802	-7,11004E-001	-7,09562E-001	-4,17200E-005	...........
	80	81,812	-7,10715E-001	-7,10212E-001	-4,17200E-005	...........
	81	82,8221	-7,10391E-001	-7,10312E-001	-1,41720E-004	...........
	82	83,8321	-7,10188E-001	-7,10712E-001	-1,41720E-004	...........
	83	84,8421	-7,10195E-001	-7,11212E-001	-1,41720E-004	...........
	84	85,8521	-7,10378E-001	-7,10662E-001	-4,17200E-005	...........
	85	86,8622	-7,10614E-001	-7,10812E-001	-2,41720E-004	...........
	86	87,8722	-7,10777E-001	-7,10912E-001	-1,41720E-004	...........
	87	88,8822	-7,10821E-001	-7,09812E-001	-4,17200E-005	...........
	88	89,8922	-7,10756E-001	-7,11012E-001	-1,41720E-004	...........
	89	90,9023	-7,10699E-001	-7,13562E-001	-4,17200E-005	...........
	90	91,9123	-7,10917E-001	-7,13012E-001	-4,17200E-005	...........
	91	92,9223	-7,11505E-001	-7,12112E-001	-1,41720E-004	...........
	92	93,9323	-7,12140E-001	-7,12012E-001	-1,41720E-004	...........
	93	94,9424	-7,12443E-001	-7,11762E-001	5,82800E-005	...........
	94	95,952	-7,12373E-001	-7,11412E-001	-4,17200E-005	...........
	95	96,962	-7,12109E-001	-7,11312E-001	-4,17200E-005	...........
	96	97,972	-7,11808E-001	-7,11162E-001	-1,41720E-004	...........
	97	98,982	-7,11537E-001	-7,10612E-001	-4,17200E-005	...........
	98	99,992	-7,11291E-001	-7,10512E-001	-4,17200E-005	...........
	99	101,003	-7,11051E-001	-7,11012E-001	-1,41720E-004	...........
	100	102,013	-7,10876E-001	-7,11462E-001	-2,41720E-004	...........
	101	103,023	-7,10853E-001	-7,11112E-001	-1,41720E-004	...........
	102	104,033	-7,10940E-001	-7,09912E-001	-2,41720E-004	...........
	103	105,043	-7,10949E-001	-7,10012E-001	-1,41720E-004	...........
	104	106,053	-7,10762E-001	-7,10512E-001	-1,41720E-004	...........
	105	107,063	-7,10502E-001	-7,10512E-001	-4,17200E-005	...........
	106	108,073	-7,10366E-001	-7,11112E-001	-1,41720E-004	...........
	107	109,083	-7,10441E-001	-7,11812E-001	-1,41720E-004	...........
	108	110,093	-7,10705E-001	-7,11612E-001	-1,41720E-004	...........
	109	111,103	-7,11058E-001	-7,11362E-001	-4,17200E-005	...........
	110	112,113	-7,11339E-001	-7,11012E-001	-1,41720E-004	...........
	111	113,123	-7,11436E-001	-7,11262E-001	-1,41720E-004	...........
	112	114,133	-7,11382E-001	-7,11312E-001	-4,17200E-005	...........
	113	115,143	-7,11296E-001	-7,11212E-001	-4,17200E-005	...........
	114	116,153	-7,11241E-001	-7,10812E-001	-1,41720E-004	...........
	115	117,163	-7,11188E-001	-7,10812E-001	-1,41720E-004	...........
	116	118,173	-7,11093E-001	-7,10762E-001	5,82800E-005	...........
	117	119,183	-7,10968E-001	-7,10712E-001	-1,41720E-004	...........
	118	120,193	-7,10852E-001	-7,10462E-001	-1,41720E-004	...........
	119	121,203	-7,10746E-001	-7,10212E-001	-4,17200E-005	...........
	120	122,213	-7,10623E-001	-7,10212E-001	-4,17200E-005	...........
	121	123,223	-7,10477E-001	-7,10112E-001	-1,41720E-004	...........
	122	124,233	-7,10331E-001	-7,09912E-001	-4,17200E-005	...........
	123	125,243	-7,10243E-001	-7,12012E-001	-1,41720E-004	...........
	124	126,253	-7,10350E-001	-7,12612E-001	-4,17200E-005	...........
	125	127,263	-7,10744E-001	-7,10612E-001	-1,41720E-004	...........
	126	128,273	-7,11201E-001	-7,10412E-001	-1,41720E-004	...........
	127	129,283	-7,11349E-001	-7,10362E-001	-1,41720E-004	...........
	128	130,293	-7,11125E-001	-7,10262E-001	-4,17200E-005	...........
	129	131,303	-7,10780E-001	-7,10962E-001	-4,17200E-005	...........
	130	132,313	-7,10572E-001	-7,11312E-001	-1,41720E-004	...........
	131	133,323	-7,10603E-001	-7,11212E-001	-1,41720E-004	...........
	132	134,333	-7,10794E-001	-7,10712E-001	-2,41720E-004	...........
	133	135,343	-7,10959E-001	-7,10512E-001	-1,41720E-004	...........
	134	136,353	-7,10971E-001	-7,10712E-001	-1,41720E-004	...........
	135	137,363	-7,10860E-001	-7,10512E-001	-1,41720E-004	...........
	136	138,373	-7,10719E-001	-7,10112E-001	-1,41720E-004	...........
	137	139,383	-7,10575E-001	-7,09812E-001	-4,17200E-005	...........
	138	140,393	-7,10393E-001	-7,09762E-001	-1,41720E-004	...........
	139	141,404	-7,10180E-001	-7,09962E-001	-1,41720E-004	...........
	140	142,414	-7,09994E-001	-7,09612E-001	-4,17200E-005	...........
	141	143,424	-7,09864E-001	-7,09312E-001	-1,41720E-004	...........
	142	144,434	-7,09749E-001	-7,09412E-001	-4,17200E-005	...........
	143	145,444	-7,09625E-001	-7,09712E-001	-1,41720E-004	...........
	144	146,454	-7,09544E-001	-7,10012E-001	-1,41720E-004	...........
	145	147,464	-7,09564E-001	-7,09712E-001	-1,41720E-004	...........
	146	148,474	-7,09660E-001	-7,09812E-001	-4,17200E-005	...........
	147	149,484	-7,09751E-001	-7,09812E-001	-1,41720E-004	...........
	148	150,494	-7,09805E-001	-7,10212E-001	-4,17200E-005	...........
	149	151,504	-7,09859E-001	-7,10262E-001	-4,17200E-005	...........
	150	152,514	-7,09950E-001	-7,10012E-001	-1,41720E-004	...........
	151	153,524	-7,10054E-001	-7,10362E-001	-1,41720E-004	...........
	152	154,534	-7,10133E-001	-7,10212E-001	-4,17200E-005	...........
	153	155,544	-7,10176E-001	-7,09712E-001	-4,17200E-005	...........
	154	156,554	-7,10159E-001	-7,09712E-001	-1,41720E-004	...........
	155	157,564	-7,10059E-001	-7,09712E-001	-1,41720E-004	...........
	156	158,574	-7,09926E-001	-7,10212E-001	-2,41720E-004	...........
	157	159,584	-7,09838E-001	-7,09162E-001	-4,17200E-005	...........
	158	160,594	-7,09798E-001	-7,10212E-001	-4,17200E-005	...........
	159	161,604	-7,09800E-001	-7,10912E-001	-1,41720E-004	...........
	160	162,614	-7,09929E-001	-7,11512E-001	-4,17200E-005	...........
	161	163,624	-7,10265E-001	-7,11612E-001	-1,41720E-004	...........
	162	164,634	-7,10733E-001	-7,11612E-001	-1,41720E-004	...........
	163	165,644	-7,11134E-001	-7,10012E-001	-1,41720E-004	...........
	164	166,654	-7,11267E-001	-7,10412E-001	-4,17200E-005	...........
	165	167,664	-7,11076E-001	-7,09712E-001	-1,41720E-004	...........
	166	168,674	-7,10704E-001	-7,10362E-001	-1,41720E-004	...........
	167	169,684	-7,10370E-001	-7,10412E-001	-1,41720E-004	...........
	168	170,694	-7,10223E-001	-7,11012E-001	-4,17200E-005	...........
	169	171,704	-7,10280E-001	-7,10412E-001	-1,41720E-004	...........
	170	172,714	-7,10428E-001	-7,10212E-001	-1,41720E-004	...........
	171	173,724	-7,10514E-001	-7,10312E-001	5,82800E-005	...........
	172	174,734	-7,10472E-001	-7,09762E-001	-1,41720E-004	...........
	173	175,744	-7,10329E-001	-7,09462E-001	-1,41720E-004	...........
	174	176,754	-7,10123E-001	-7,09912E-001	-1,41720E-004	...........
	175	177,764	-7,09921E-001	-7,09862E-001	-4,17200E-005	...........
	176	178,774	-7,09811E-001	-7,10212E-001	-1,41720E-004	...........
	177	179,784	-7,09829E-001	-7,10212E-001	-1,41720E-004	...........
	178	180,794	-7,09939E-001	-7,10412E-001	-1,41720E-004	...........
	179	181,805	-7,10067E-001	-7,09512E-001	-4,17200E-005	...........
	180	182,815	-7,10121E-001	-7,09812E-001	-4,17200E-005	...........
	181	183,825	-7,10050E-001	-7,09562E-001	-1,41720E-004	...........
	182	184,835	-7,09898E-001	-7,09412E-001	-4,17200E-005	...........
	183	185,845	-7,09753E-001	-7,10312E-001	-4,17200E-005	...........
	184	186,855	-7,09693E-001	-7,09712E-001	-2,41720E-004	...........
	185	187,865	-7,09723E-001	-7,09312E-001	-4,17200E-005	...........
	186	188,875	-7,09758E-001	-7,10112E-001	-4,17200E-005	...........
	187	189,885	-7,09764E-001	-7,10362E-001	-1,41720E-004	...........
	188	190,895	-7,09823E-001	-7,10312E-001	-1,41720E-004	...........
	189	191,905	-7,09971E-001	-7,10212E-001	-4,17200E-005	...........
	190	192,915	-7,10131E-001	-7,10212E-001	-1,41720E-004	...........
	191	193,925	-7,10229E-001	-7,10462E-001	-2,41720E-004	...........
	192	194,935	-7,10278E-001	-7,10512E-001	-2,41720E-004	...........
	193	195,945	-7,10325E-001	-7,10362E-001	-1,41720E-004	...........
	194	196,955	-7,10378E-001	-7,10462E-001	-1,41720E-004	...........
	195	197,965	-7,10419E-001	-7,10562E-001	-2,41720E-004	...........
	196	198,975	-7,10409E-001	-7,08512E-001	-1,41720E-004	...........
	197	199,985	-7,10252E-001	-7,09212E-001	-4,17200E-005	...........
	198	200,995	-7,09909E-001	-7,09412E-001	-4,17200E-005	...........
	199	202,005	-7,09550E-001	-7,09912E-001	-1,41720E-004	...........
	200	203,015	-7,09412E-001	-7,10812E-001	-4,17200E-005	...........
	201	204,025	-7,09567E-001	-7,10212E-001	-1,41720E-004	...........
	202	205,035	-7,09880E-001	-7,09912E-001	-4,17200E-005	...........
	203	206,045	-7,10129E-001	-7,10312E-001	-1,41720E-004	...........
	204	207,055	-7,10229E-001	-7,10762E-001	-1,41720E-004	...........
	205	208,065	-7,10258E-001	-7,09462E-001	-4,17200E-005	...........
	206	209,075	-7,10249E-001	-7,09812E-001	-1,41720E-004	...........
	207	210,085	-7,10160E-001	-7,10312E-001	-4,17200E-005	...........
	208	211,095	-7,10049E-001	-7,10212E-001	-1,41720E-004	...........
	209	212,105	-7,10007E-001	-7,09362E-001	-4,17200E-005	...........
	210	213,115	-7,09965E-001	-7,08362E-001	-1,41720E-004	...........
	211	214,125	-7,09759E-001	-7,08812E-001	-4,17200E-005	...........
	212	215,135	-7,09417E-001	-7,10212E-001	-4,17200E-005	...........
	213	216,145	-7,09222E-001	-7,11212E-001	-1,41720E-004	...........
	214	217,155	-7,09441E-001	-7,11812E-001	-1,41720E-004	...........
	215	218,165	-7,10041E-001	-7,11412E-001	-2,41720E-004	...........
	216	219,175	-7,10725E-001	-7,11212E-001	-1,41720E-004	...........
	217	220,185	-7,11199E-001	-7,11412E-001	-4,17200E-005	...........
	218	221,195	-7,11390E-001	-7,11312E-001	-1,41720E-004	...........
	219	222,206	-7,11413E-001	-7,11512E-001	-2,41720E-004	...........
	220	223,216	-7,11401E-001	-7,11612E-001	-1,41720E-004	...........
	221	224,226	-7,11417E-001	-7,11362E-001	-1,41720E-004	...........
	222	225,236	-7,11455E-001	-7,11612E-001	-1,41720E-004	...........
	223	226,246	-7,11473E-001	-7,10812E-001	-4,17200E-005	...........
	224	227,256	-7,11412E-001	-7,10212E-001	-4,17200E-005	...........
	225	228,266	-7,11215E-001	-7,10412E-001	-1,41720E-004	...........
	226	229,276	-7,10924E-001	-7,11062E-001	-1,41720E-004	...........
	227	230,286	-7,10703E-001	-7,10862E-001	-1,41720E-004	...........
	228	231,296	-7,10657E-001	-7,10812E-001	-1,41720E-004	...........
	229	232,306	-7,10724E-001	-7,10612E-001	-1,41720E-004	...........
	230	233,316	-7,10775E-001	-7,10612E-001	-2,41720E-004	...........
	231	234,326	-7,10754E-001	-7,10312E-001	-4,17200E-005	...........
	232	235,336	-7,10655E-001	-7,09562E-001	-1,41720E-004	...........
	233	236,346	-7,10469E-001	-7,09912E-001	-1,41720E-004	...........
	234	237,356	-7,10220E-001	-7,09662E-001	-1,41720E-004	...........
	235	238,366	-7,09982E-001	-7,09462E-001	-1,41720E-004	...........
	236	239,376	-7,09786E-001	-7,08812E-001	-1,41720E-004	...........
	237	240,386	-7,09594E-001	-7,09412E-001	-4,17200E-005	...........
	238	241,396	-7,09400E-001	-7,09012E-001	-4,17200E-005	...........
	239	242,406	-7,09245E-001	-7,08762E-001	-4,17200E-005	...........
	240	243,416	-7,09126E-001	-7,08812E-001	-1,41720E-004	...........
	241	244,426	-7,09017E-001	-7,09062E-001	-1,41720E-004	...........
	242	245,436	-7,08945E-001	-7,09412E-001	-1,41720E-004	...........
	243	246,446	-7,08966E-001	-7,09262E-001	-1,41720E-004	...........
	244	247,456	-7,09068E-001	-7,09212E-001	-1,41720E-004	...........
	245	248,466	-7,09207E-001	-7,10812E-001	-1,41720E-004	...........
	246	249,476	-7,09404E-001	-7,09812E-001	-4,17200E-005	...........
	247	250,486	-7,09652E-001	-7,09112E-001	-1,41720E-004	...........
	248	251,496	-7,09792E-001	-7,08912E-001	-1,41720E-004	...........
	249	252,506	-7,09689E-001	-7,09062E-001	-1,41720E-004	...........
	250	253,516	-7,09442E-001	-7,09612E-001	-4,17200E-005	...........
	251	254,526	-7,09270E-001	-7,09962E-001	-4,17200E-005	...........
	252	255,536	-7,09309E-001	-7,10212E-001	-1,41720E-004	...........
	253	256,546	-7,09531E-001	-7,10362E-001	-4,17200E-005	...........
	254	257,556	-7,09829E-001	-7,10562E-001	-4,17200E-005	...........
	255	258,566	-7,10090E-001	-7,09712E-001	-1,41720E-004	...........
	256	259,576	-7,10224E-001	-7,09912E-001	-1,41720E-004	...........
	257	260,586	-7,10194E-001	-7,09762E-001	-4,17200E-005	...........
	258	261,596	-7,10059E-001	-7,09662E-001	-4,17200E-005	...........
	259	262,607	-7,09894E-001	-7,08862E-001	-4,17200E-005	...........
	260	263,617	-7,09697E-001	-7,08812E-001	-1,41720E-004	...........
	261	264,627	-7,09443E-001	-7,09012E-001	-1,41720E-004	...........
	262	265,637	-7,09196E-001	-7,09312E-001	-4,17200E-005	...........
	263	266,647	-7,09069E-001	-7,09662E-001	-4,17200E-005	...........
	264	267,657	-7,09098E-001	-7,08812E-001	-1,41720E-004	...........
	265	268,667	-7,09188E-001	-7,09312E-001	-1,41720E-004	...........
	266	269,677	-7,09239E-001	-7,09612E-001	-1,41720E-004	...........
	267	270,687	-7,09267E-001	-7,09412E-001	-1,41720E-004	...........
	268	271,697	-7,09319E-001	-7,09212E-001	-1,41720E-004	...........
	269	272,707	-7,09376E-001	-7,09812E-001	-1,41720E-004	...........
	270	273,717	-7,09426E-001	-7,09712E-001	-1,41720E-004	...........
	271	274,727	-7,09501E-001	-7,09912E-001	-4,17200E-005	...........
	272	275,737	-7,09615E-001	-7,09912E-001	-1,41720E-004	...........
	273	276,747	-7,09726E-001	-7,09512E-001	-4,17200E-005	...........
	274	277,757	-7,09783E-001	-7,09612E-001	-4,17200E-005	...........
	275	278,767	-7,09754E-001	-7,09212E-001	5,82800E-005	...........
	276	279,777	-7,09643E-001	-7,08862E-001	-4,17200E-005	...........
	277	280,787	-7,09473E-001	-7,09312E-001	-1,41720E-004	...........
	278	281,797	-7,09305E-001	-7,09412E-001	-1,41720E-004	...........
	279	282,807	-7,09219E-001	-7,09362E-001	-4,17200E-005	...........
	280	283,817	-7,09231E-001	-7,09162E-001	-1,41720E-004	...........
	281	284,827	-7,09270E-001	-7,09112E-001	-4,17200E-005	...........
	282	285,837	-7,09277E-001	-7,09612E-001	-1,41720E-004	...........
	283	286,847	-7,09268E-001	-7,08912E-001	-4,17200E-005	...........
	284	287,857	-7,09257E-001	-7,09062E-001	-4,17200E-005	...........
	285	288,867	-7,09232E-001	-7,09712E-001	-4,17200E-005	...........
	286	289,877	-7,09231E-001	-7,09712E-001	-1,41720E-004	...........
	287	290,887	-7,09310E-001	-7,09412E-001	-4,17200E-005	...........
	288	291,897	-7,09420E-001	-7,08812E-001	-4,17200E-005	...........
	289	292,907	-7,09425E-001	-7,08512E-001	-2,41720E-004	...........
	290	293,917	-7,09258E-001	-7,08412E-001	-1,41720E-004	...........
	291	294,927	-7,08987E-001	-7,08812E-001	-1,41720E-004	...........
	292	295,937	-7,08748E-001	-7,08412E-001	-1,41720E-004	...........
	293	296,947	-7,08599E-001	-7,07712E-001	-1,41720E-004	...........
	294	297,957	-7,08469E-001	-7,08012E-001	-4,17200E-005	...........
	295	298,967	-7,08299E-001	-7,08312E-001	-4,17200E-005	...........
	296	299,977	-7,08153E-001	-7,08062E-001	-1,41720E-004	...........
	297	300,987	-7,08097E-001	-7,08212E-001	-1,41720E-004	...........
	298	301,997	-7,08115E-001	-7,08512E-001	-1,41720E-004	...........
	299	303,008	-7,08196E-001	-7,09412E-001	-1,41720E-004	...........
	300	304,018	-7,08376E-001	-7,09012E-001	-1,41720E-004	...........
	301	305,028	-7,08634E-001	-7,08712E-001	-4,17200E-005	...........
	302	306,038	-7,08818E-001	-7,07312E-001	-4,17200E-005	...........
	303	307,048	-7,08744E-001	-7,07312E-001	-4,17200E-005	...........
	304	308,058	-7,08409E-001	-7,08512E-001	-1,41720E-004	...........
	305	309,068	-7,08066E-001	-7,08612E-001	-2,41720E-004	...........
	306	310,078	-7,07965E-001	-7,08012E-001	-1,41720E-004	...........
	307	311,088	-7,08062E-001	-7,07612E-001	-4,17200E-005	...........
	308	312,098	-7,08104E-001	-7,06812E-001	-4,17200E-005	...........
	309	313,108	-7,07895E-001	-7,04912E-001	-2,41720E-004	...........
	310	314,118	-7,07387E-001	-7,06412E-001	-1,41720E-004	...........
	311	315,128	-7,06762E-001	-7,07012E-001	-1,41720E-004	...........
	312	316,138	-7,06369E-001	-7,07012E-001	-4,17200E-005	...........
	313	317,148	-7,06374E-001	-7,07262E-001	-1,41720E-004	...........
	314	318,158	-7,06631E-001	-7,07212E-001	-4,17200E-005	...........
	315	319,168	-7,06914E-001	-7,07212E-001	-4,17200E-005	...........
	316	320,178	-7,07109E-001	-7,07362E-001	-1,41720E-004	...........
	317	321,188	-7,07214E-001	-7,07312E-001	-1,41720E-004	...........
	318	322,198	-7,07275E-001	-7,07662E-001	-4,17200E-005	...........
	319	323,208	-7,07339E-001	-7,07612E-001	-1,41720E-004	...........
	320	324,218	-7,07426E-001	-7,07612E-001	-1,41720E-004	...........
	321	325,228	-7,07509E-001	-7,07262E-001	-1,41720E-004	...........
	322	326,238	-7,07543E-001	-7,07562E-001	-4,17200E-005	...........
	323	327,248	-7,07523E-001	-7,07412E-001	-2,41720E-004	...........
	324	328,258	-7,07491E-001	-7,07762E-001	-1,41720E-004	...........
	325	329,268	-7,07504E-001	-7,08112E-001	-4,17200E-005	...........
	326	330,278	-7,07587E-001	-7,07612E-001	-1,41720E-004	...........
	327	331,288	-7,07687E-001	-7,07012E-001	-4,17200E-005	...........
	328	332,298	-7,07680E-001	-7,06712E-001	-1,41720E-004	...........
	329	333,308	-7,07498E-001	-7,06812E-001	-1,41720E-004	...........
	330	334,318	-7,07210E-001	-7,06262E-001	-4,17200E-005	...........
	331	335,328	-7,06931E-001	-7,07012E-001	-4,17200E-005	...........
	332	336,338	-7,06745E-001	-7,06712E-001	-4,17200E-005	...........
	333	337,348	-7,06676E-001	-7,06412E-001	-1,41720E-004	...........
	334	338,358	-7,06657E-001	-7,06212E-001	-4,17200E-005	...........
	335	339,368	-7,06600E-001	-7,06512E-001	-1,41720E-004	...........
	336	340,378	-7,06526E-001	-7,07412E-001	-1,41720E-004	...........
	337	341,388	-7,06546E-001	-7,07012E-001	-1,41720E-004	...........
	338	342,398	-7,06705E-001	-7,07162E-001	-1,41720E-004	...........
	339	343,409	-7,06926E-001	-7,08112E-001	-1,41720E-004	...........
	340	344,419	-7,07166E-001	-7,07962E-001	-1,41720E-004	...........
	341	345,429	-7,07439E-001	-7,08112E-001	-4,17200E-005	...........
	342	346,439	-7,07711E-001	-7,08012E-001	-1,41720E-004	...........
	343	347,449	-7,07918E-001	-7,08362E-001	-1,41720E-004	...........
	344	348,459	-7,08058E-001	-7,08612E-001	-4,17200E-005	...........
	345	349,469	-7,08177E-001	-7,08062E-001	5,82800E-005	...........
	346	350,479	-7,08275E-001	-7,08362E-001	-1,41720E-004	...........
	347	351,489	-7,08315E-001	-7,08112E-001	-1,41720E-004	...........
	348	352,499	-7,08296E-001	-7,08162E-001	-1,41720E-004	...........
	349	353,509	-7,08258E-001	-7,08612E-001	-1,41720E-004	...........
	350	354,519	-7,08256E-001	-7,08612E-001	-1,41720E-004	...........
	351	355,529	-7,08326E-001	-7,08612E-001	-1,41720E-004	...........
	352	356,539	-7,08445E-001	-7,08912E-001	-4,17200E-005	...........
	353	357,549	-7,08568E-001	-7,08662E-001	-1,41720E-004	...........
	354	358,559	-7,08667E-001	-7,08712E-001	-1,41720E-004	...........
	355	359,569	-7,08717E-001	-7,08512E-001	-4,17200E-005	...........
	356	360,579	-7,08701E-001	-7,08112E-001	-1,41720E-004	...........
	357	361,589	-7,08607E-001	-7,07962E-001	-1,41720E-004	...........
	358	362,599	-7,08441E-001	-7,08012E-001	-2,41720E-004	...........
	359	363,609	-7,08252E-001	-7,07962E-001	-1,41720E-004	...........
	360	364,619	-7,08099E-001	-7,07812E-001	-1,41720E-004	...........
	361	365,629	-7,07994E-001	-7,07712E-001	-1,41720E-004	...........
	362	366,639	-7,07904E-001	-7,07312E-001	-1,41720E-004	...........
	363	367,649	-7,07794E-001	-7,07612E-001	-1,41720E-004	...........
	364	368,659	-7,07671E-001	-7,07562E-001	-1,41720E-004	...........
	365	369,669	-7,07584E-001	-7,07712E-001	-1,41720E-004	...........
	366	370,679	-7,07572E-001	-7,08112E-001	-1,41720E-004	...........
	367	371,689	-7,07630E-001	-7,07362E-001	-4,17200E-005	...........
	368	372,699	-7,07687E-001	-7,07012E-001	-4,17200E-005	...........
	369	373,709	-7,07640E-001	-7,07162E-001	-1,41720E-004	...........
	370	374,719	-7,07477E-001	-7,07012E-001	5,82800E-005	...........
	371	375,729	-7,07290E-001	-7,07212E-001	-2,41720E-004	...........
	372	376,739	-7,07165E-001	-7,07112E-001	-2,41720E-004	...........
	373	377,749	-7,07124E-001	-7,07512E-001	-4,17200E-005	...........
	374	378,759	-7,07154E-001	-7,07212E-001	-1,41720E-004	...........
	375	379,769	-7,07229E-001	-7,07812E-001	-4,17200E-005	...........
	376	380,779	-7,07325E-001	-7,07362E-001	-4,17200E-005	...........
	377	381,789	-7,07414E-001	-7,07212E-001	-4,17200E-005	...........
	378	382,799	-7,07447E-001	-7,07262E-001	-4,17200E-005	...........
	379	383,81	-7,07416E-001	-7,07662E-001	-4,17200E-005	...........
	380	384,82	-7,07380E-001	-7,07312E-001	-4,17200E-005	...........
	381	385,83	-7,07381E-001	-7,07312E-001	-1,41720E-004	...........
	382	386,84	-7,07376E-001	-7,06512E-001	-4,17200E-005	...........
	383	387,85	-7,07283E-001	-7,06462E-001	-1,41720E-004	...........
	384	388,86	-7,07068E-001	-7,06212E-001	5,82800E-005	...........
	385	389,87	-7,06792E-001	-7,06462E-001	-1,41720E-004	...........
	386	390,88	-7,06557E-001	-7,06462E-001	-4,17200E-005	...........
	387	391,89	-7,06430E-001	-7,06462E-001	-1,41720E-004	...........
	388	392,9	-7,06404E-001	-7,06562E-001	-1,41720E-004	...........
	389	393,91	-7,06438E-001	-7,06812E-001	-4,17200E-005	...........
	390	394,92	-7,06503E-001	-7,06512E-001	-4,17200E-005	...........
	391	395,93	-7,06569E-001	-7,06512E-001	-1,41720E-004	...........
	392	396,94	-7,06602E-001	-7,06612E-001	-1,41720E-004	...........
	393	397,95	-7,06599E-001	-7,06712E-001	-4,17200E-005	...........
	394	398,96	-7,06610E-001	-7,07362E-001	-1,41720E-004	...........
	395	399,97	-7,06692E-001	-7,07012E-001	-1,41720E-004	...........
	396	400,98	-7,06835E-001	-7,06812E-001	-2,41720E-004	...........
	397	401,99	-7,06944E-001	-7,06512E-001	-1,41720E-004	...........
	398	403	-7,06933E-001	-7,06412E-001	-1,41720E-004	...........
	399	404,01	-7,06808E-001	-7,06412E-001	-1,41720E-004	...........
	400	405,02	-7,06637E-001	-7,06012E-001	5,82800E-005	...........
	401	406,03	-7,06466E-001	-7,06012E-001	-1,41720E-004	...........
	402	407,04	-7,06298E-001	-7,05712E-001	-1,41720E-004	...........
	403	408,05	-7,06131E-001	-7,05812E-001	-1,41720E-004	...........
	404	409,06	-7,05973E-001	-7,05412E-001	-1,41720E-004	...........
	405	410,07	-7,05825E-001	-7,05412E-001	-4,17200E-005	...........
	406	411,08	-7,05689E-001	-7,05762E-001	-1,41720E-004	...........
	407	412,09	-7,05595E-001	-7,05612E-001	-1,41720E-004	...........
	408	413,1	-7,05573E-001	-7,05812E-001	-4,17200E-005	...........
	409	414,11	-7,05601E-001	-7,05212E-001	-1,41720E-004	...........
	410	415,12	-7,05611E-001	-7,05412E-001	-1,41720E-004	...........
	411	416,13	-7,05557E-001	-7,05162E-001	-1,41720E-004	...........
	412	417,14	-7,05459E-001	-7,05462E-001	-1,41720E-004	...........
	413	418,15	-7,05372E-001	-7,05212E-001	-1,41720E-004	...........
	414	419,16	-7,05315E-001	-7,04812E-001	-1,41720E-004	...........
	415	420,17	-7,05247E-001	-7,04812E-001	-4,17200E-005	...........
	416	421,18	-7,05137E-001	-7,05212E-001	-2,41720E-004	...........
	417	422,19	-7,05039E-001	-7,05212E-001	-4,17200E-005	...........
	418	423,201	-7,05014E-001	-7,04912E-001	-1,41720E-004	...........
	419	424,211	-7,05036E-001	-7,04762E-001	-4,17200E-005	...........
	420	425,221	-7,05030E-001	-7,05012E-001	-1,41720E-004	...........
	421	426,231	-7,04983E-001	-7,04912E-001	-1,41720E-004	...........
	422	427,241	-7,04940E-001	-7,04912E-001	-1,41720E-004	...........
	423	428,251	-7,04922E-001	-7,04912E-001	-4,17200E-005	...........
	424	429,261	-7,04917E-001	-7,04912E-001	-1,41720E-004	...........
	425	430,271	-7,04929E-001	-7,05612E-001	-1,41720E-004	...........
	426	431,281	-7,05006E-001	-7,06062E-001	-4,17200E-005	...........
	427	432,291	-7,05202E-001	-7,06012E-001	-4,17200E-005	...........
	428	433,301	-7,05485E-001	-7,05712E-001	-4,17200E-005	...........
	429	434,311	-7,05724E-001	-7,05612E-001	-1,41720E-004	...........
	430	435,321	-7,05822E-001	-7,05712E-001	-1,41720E-004	...........
	431	436,331	-7,05800E-001	-7,05712E-001	-1,41720E-004	...........
	432	437,341	-7,05740E-001	-7,05412E-001	-4,17200E-005	...........
	433	438,351	-7,05680E-001	-7,05612E-001	-2,41720E-004	...........
	434	439,361	-7,05626E-001	-7,05662E-001	-4,17200E-005	...........
	435	440,371	-7,05594E-001	-7,05662E-001	-1,41720E-004	...........
	436	441,381	-7,05605E-001	-7,06012E-001	-4,17200E-005	...........
	437	442,391	-7,05664E-001	-7,06012E-001	-1,41720E-004	...........
	438	443,401	-7,05755E-001	-7,05562E-001	-4,17200E-005	...........
	439	444,411	-7,05818E-001	-7,05412E-001	-1,41720E-004	...........
	440	445,421	-7,05787E-001	-7,05412E-001	-4,17200E-005	...........
	441	446,431	-7,05673E-001	-7,05462E-001	-4,17200E-005	...........
	442	447,441	-7,05553E-001	-7,05612E-001	-4,17200E-005	...........
	443	448,451	-7,05495E-001	-7,05712E-001	-4,17200E-005	...........
	444	449,461	-7,05517E-001	-7,06012E-001	-4,17200E-005	...........
	445	450,471	-7,05611E-001	-7,06012E-001	-1,41720E-004	...........
	446	451,481	-7,05736E-001	-7,05562E-001	-1,41720E-004	...........
	447	452,491	-7,05804E-001	-7,04712E-001	-4,17200E-005	...........
	448	453,501	-7,05697E-001	-7,04112E-001	-1,41720E-004	...........
	449	454,511	-7,05375E-001	-7,04512E-001	-1,41720E-004	...........
	450	455,521	-7,04964E-001	-7,04812E-001	-1,41720E-004	...........
	451	456,531	-7,04671E-001	-7,04812E-001	-4,17200E-005	...........
	452	457,541	-7,04589E-001	-7,04812E-001	-1,41720E-004	...........
	453	458,551	-7,04645E-001	-7,04712E-001	-4,17200E-005	...........
	454	459,561	-7,04719E-001	-7,04612E-001	-1,41720E-004	...........
	455	460,571	-7,04739E-001	-7,04412E-001	-4,17200E-005	...........
	456	461,581	-7,04692E-001	-7,04362E-001	-1,41720E-004	...........
	457	462,591	-7,04599E-001	-7,04412E-001	-4,17200E-005	...........
	458	463,602	-7,04491E-001	-7,03912E-001	-1,41720E-004	...........
	459	464,612	-7,04376E-001	-7,03912E-001	-1,41720E-004	...........
	460	465,622	-7,04238E-001	-7,03912E-001	-4,17200E-005	...........
	461	466,632	-7,04093E-001	-7,03812E-001	-4,17200E-005	...........
	462	467,642	-7,03975E-001	-7,03812E-001	-1,41720E-004	...........
	463	468,652	-7,03888E-001	-7,03412E-001	-1,41720E-004	...........
	464	469,662	-7,03798E-001	-7,03312E-001	-2,41720E-004	...........
	465	470,672	-7,03673E-001	-7,03212E-001	-1,41720E-004	...........
	466	471,682	-7,03520E-001	-7,03162E-001	-1,41720E-004	...........
	467	472,692	-7,03368E-001	-7,02912E-001	-4,17200E-005	...........
	468	473,702	-7,03231E-001	-7,02762E-001	-1,41720E-004	...........
	469	474,712	-7,03092E-001	-7,02562E-001	-1,41720E-004	...........
	470	475,722	-7,02936E-001	-7,02362E-001	-1,41720E-004	...........
	471	476,732	-7,02763E-001	-7,02212E-001	-1,41720E-004	...........
	472	477,742	-7,02585E-001	-7,02262E-001	-1,41720E-004	...........
	473	478,752	-7,02430E-001	-7,02312E-001	-1,41720E-004	...........
	474	479,762	-7,02330E-001	-7,02412E-001	-1,41720E-004	...........
	475	480,772	-7,02299E-001	-7,02412E-001	-1,41720E-004	...........
	476	481,782	-7,02319E-001	-7,02362E-001	-4,17200E-005	...........
	477	482,792	-7,02354E-001	-7,02412E-001	-4,17200E-005	...........
	478	483,802	-7,02379E-001	-7,02362E-001	-4,17200E-005	...........
	479	484,812	-7,02385E-001	-7,02212E-001	-2,41720E-004	...........
	480	485,822	-7,02366E-001	-7,02112E-001	-1,41720E-004	...........
	481	486,832	-7,02316E-001	-7,02162E-001	-1,41720E-004	...........
	482	487,842	-7,02260E-001	-7,02762E-001	-4,17200E-005	...........
	483	488,852	-7,02266E-001	-7,02812E-001	-1,41720E-004	...........
	484	489,862	-7,02366E-001	-7,02412E-001	-1,41720E-004	...........
	485	490,872	-7,02495E-001	-7,02312E-001	-4,17200E-005	...........
	486	491,882	-7,02540E-001	-7,02012E-001	-2,41720E-004	...........
	487	492,892	-7,02483E-001	-7,03012E-001	-1,41720E-004	...........
	488	493,902	-7,02444E-001	-7,03612E-001	-1,41720E-004	...........
	489	494,912	-7,02561E-001	-7,02812E-001	-1,41720E-004	...........
	490	495,922	-7,02790E-001	-7,02712E-001	-4,17200E-005	...........
	491	496,932	-7,02948E-001	-7,02712E-001	-1,41720E-004	...........
	492	497,942	-7,02941E-001	-7,02462E-001	-1,41720E-004	...........
	493	498,952	-7,02825E-001	-7,02362E-001	-1,41720E-004	...........
	494	499,962	-7,02676E-001	-7,02412E-001	-1,41720E-004	...........
	495	500,972	-7,02548E-001	-7,02662E-001	-4,17200E-005	...........
	496	501,982	-7,02487E-001	-7,02812E-001	-4,17200E-005	...........
	497	502,992	-7,02517E-001	-7,02862E-001	-4,17200E-005	...........
	498	504,003	-7,02614E-001	-7,02812E-001	-4,17200E-005	...........
	499	505,013	-7,02720E-001	-7,02812E-001	5,82800E-005	...........
	500	506,023	-7,02787E-001	-7,02662E-001	-1,41720E-004	...........
	501	507,033	-7,02802E-001	-7,02712E-001	-4,17200E-005	...........
	502	508,043	-7,02779E-001	-7,02812E-001	-1,41720E-004	...........
	503	509,053	-7,02755E-001	-7,02812E-001	-1,41720E-004	...........
	504	510,063	-7,02753E-001	-7,02812E-001	-1,41720E-004	...........
	505	511,073	-7,02773E-001	-7,02862E-001	-1,41720E-004	...........
	506	512,083	-7,02802E-001	-7,03012E-001	-4,17200E-005	...........
	507	513,093	-7,02843E-001	-7,03062E-001	-1,41720E-004	...........
	508	514,103	-7,02901E-001	-7,03112E-001	-1,41720E-004	...........
	509	515,113	-7,02969E-001	-7,03012E-001	-4,17200E-005	...........
	510	516,123	-7,03019E-001	-7,02812E-001	-2,41720E-004	...........
	511	517,133	-7,03023E-001	-7,02812E-001	-1,41720E-004	...........
	512	518,143	-7,02975E-001	-7,02812E-001	-1,41720E-004	...........
	513	519,153	-7,02906E-001	-7,02812E-001	-4,17200E-005	...........
	514	520,163	-7,02854E-001	-7,03012E-001	-4,17200E-005	...........
	515	521,173	-7,02848E-001	-7,03212E-001	-1,41720E-004	...........
	516	522,183	-7,02894E-001	-7,02812E-001	-1,41720E-004	...........
	517	523,193	-7,02942E-001	-7,02212E-001	-1,41720E-004	...........
	518	524,203	-7,02902E-001	-7,02562E-001	-1,41720E-004	...........
	519	525,213	-7,02770E-001	-7,02912E-001	-1,41720E-004	...........
	520	526,223	-7,02662E-001	-7,03012E-001	-4,17200E-005	...........
	521	527,233	-7,02673E-001	-7,03012E-001	-1,41720E-004	...........
	522	528,243	-7,02772E-001	-7,02562E-001	-4,17200E-005	...........
	523	529,253	-7,02851E-001	-7,02862E-001	-4,17200E-005	...........
	524	530,263	-7,02862E-001	-7,03012E-001	-1,41720E-004	...........
	525	531,273	-7,02854E-001	-7,03162E-001	-1,41720E-004	...........
	526	532,283	-7,02891E-001	-7,03062E-001	-2,41720E-004	...........
	527	533,293	-7,02972E-001	-7,03312E-001	-1,41720E-004	...........
	528	534,303	-7,03063E-001	-7,03212E-001	-1,41720E-004	...........
	529	535,313	-7,03141E-001	-7,03212E-001	5,82800E-005	...........
	530	536,323	-7,03194E-001	-7,03212E-001	-4,17200E-005	...........
	531	537,333	-7,03218E-001	-7,03212E-001	-4,17200E-005	...........
	532	538,343	-7,03220E-001	-7,03112E-001	-2,41720E-004	...........
	533	539,353	-7,03203E-001	-7,02962E-001	-1,41720E-004	...........
	534	540,363	-7,03162E-001	-7,02912E-001	-4,17200E-005	...........
	535	541,373	-7,03093E-001	-7,02812E-001	-1,41720E-004	...........
	536	542,383	-7,03001E-001	-7,02512E-001	-4,17200E-005	...........
	537	543,393	-7,02893E-001	-7,02662E-001	-4,17200E-005	...........
	538	544,404	-7,02780E-001	-7,02662E-001	-1,41720E-004	...........
	539	545,414	-7,02691E-001	-7,02512E-001	-1,41720E-004	...........
	540	546,424	-7,02642E-001	-7,02812E-001	-1,41720E-004	...........
	541	547,434	-7,02632E-001	-7,02812E-001	-1,41720E-004	...........
	542	548,444	-7,02658E-001	-7,02612E-001	-1,41720E-004	...........
	543	549,454	-7,02692E-001	-7,02512E-001	5,82800E-005	...........
	544	550,464	-7,02691E-001	-7,02562E-001	-1,41720E-004	...........
	545	551,474	-7,02654E-001	-7,02812E-001	-1,41720E-004	...........
	546	552,484	-7,02640E-001	-7,03362E-001	-1,41720E-004	...........
	547	553,494	-7,02711E-001	-7,02912E-001	-4,17200E-005	...........
	548	554,504	-7,02844E-001	-7,02812E-001	-1,41720E-004	...........
	549	555,514	-7,02941E-001	-7,02712E-001	-1,41720E-004	...........
	550	556,524	-7,02942E-001	-7,02812E-001	-1,41720E-004	...........
	551	557,534	-7,02881E-001	-7,02812E-001	-1,41720E-004	...........
	552	558,544	-7,02819E-001	-7,02562E-001	-1,41720E-004	...........
	553	559,554	-7,02777E-001	-7,02912E-001	-1,41720E-004	...........
	554	560,564	-7,02754E-001	-7,02812E-001	-1,41720E-004	...........
	555	561,574	-7,02756E-001	-7,02712E-001	-4,17200E-005	...........
	556	562,584	-7,02772E-001	-7,02812E-001	-4,17200E-005	...........
	557	563,594	-7,02784E-001	-7,02912E-001	-4,17200E-005	...........
	558	564,604	-7,02793E-001	-7,02662E-001	-1,41720E-004	...........
	559	565,614	-7,02800E-001	-7,02812E-001	-2,41720E-004	...........
	560	566,624	-7,02800E-001	-7,02962E-001	5,82800E-005	...........
	561	567,634	-7,02814E-001	-7,03312E-001	-2,41720E-004	...........
	562	568,644	-7,02881E-001	-7,03212E-001	-2,41720E-004	...........
	563	569,654	-7,02998E-001	-7,03212E-001	-4,17200E-005	...........
	564	570,664	-7,03107E-001	-7,02812E-001	-4,17200E-005	...........
	565	571,674	-7,03141E-001	-7,02812E-001	-4,17200E-005	...........
	566	572,684	-7,03094E-001	-7,03512E-001	-1,41720E-004	...........
	567	573,694	-7,03043E-001	-7,02812E-001	-1,41720E-004	...........
	568	574,704	-7,03036E-001	-7,02812E-001	-1,41720E-004	...........
	569	575,714	-7,03022E-001	-7,02712E-001	-1,41720E-004	...........
	570	576,724	-7,02957E-001	-7,02812E-001	-2,41720E-004	...........
	571	577,734	-7,02866E-001	-7,02562E-001	-1,41720E-004	...........
	572	578,744	-7,02786E-001	-7,02712E-001	-4,17200E-005	...........
	573	579,754	-7,02731E-001	-7,02962E-001	-2,41720E-004	...........
	574	580,764	-7,02720E-001	-7,02812E-001	-1,41720E-004	...........
	575	581,774	-7,02756E-001	-7,02912E-001	-1,41720E-004	...........
	576	582,784	-7,02812E-001	-7,02962E-001	-1,41720E-004	...........
	577	583,794	-7,02862E-001	-7,02912E-001	-4,17200E-005	...........
	578	584,805	-7,02893E-001	-7,02662E-001	-2,41720E-004	...........
	579	585,815	-7,02892E-001	-7,02862E-001	-4,17200E-005	...........
	580	586,825	-7,02864E-001	-7,03012E-001	-4,17200E-005	...........
	581	587,835	-7,02847E-001	-7,02812E-001	-1,41720E-004	...........
	582	588,845	-7,02860E-001	-7,03012E-001	-1,41720E-004	...........
	583	589,855	-7,02892E-001	-7,03162E-001	-1,41720E-004	...........
	584	590,865	-7,02939E-001	-7,03012E-001	-1,41720E-004	...........
	585	591,875	-7,02997E-001	-7,03212E-001	-1,41720E-004	...........
	586	592,885	-7,03057E-001	-7,03312E-001	-1,41720E-004	...........
	587	593,895	-7,03117E-001	-7,03212E-001	-2,41720E-004	...........
	588	594,905	-7,03175E-001	-7,03162E-001	-1,41720E-004	...........
	589	595,915	-7,03211E-001	-7,03212E-001	-4,17200E-005	...........
	590	596,925	-7,03217E-001	-7,03162E-001	-1,41720E-004	...........
	591	597,935	-7,03203E-001	-7,03012E-001	-4,17200E-005	...........
	592	598,945	-7,03175E-001	-7,03112E-001	-1,41720E-004	...........
	593	599,955	-7,03138E-001	-7,03112E-001	-4,17200E-005	...........
	594	600,965	-7,03114E-001	-7,03362E-001	-2,41720E-004	...........
	595	601,975	-7,03124E-001	-7,03112E-001	-1,41720E-004	...........
	596	602,985	-7,03160E-001	-7,03262E-001	-1,41720E-004	...........
	597	603,995	-7,03197E-001	-7,03412E-001	-1,41720E-004	...........
	598	605,005	-7,03236E-001	-7,03412E-001	-1,41720E-004	...........
	599	606,015	-7,03288E-001	-7,03512E-001	-4,17200E-005	...........
	600	607,025	-7,03354E-001	-7,03512E-001	-1,41720E-004	...........
	601	608,035	-7,03420E-001	-7,03612E-001	-1,41720E-004	...........
	602	609,045	-7,03484E-001	-7,03812E-001	-4,17200E-005	...........
	603	610,055	-7,03552E-001	-7,03612E-001	5,82800E-005	...........
	604	611,065	-7,03611E-001	-7,03312E-001	-1,41720E-004	...........
	605	612,075	-7,03618E-001	-7,03312E-001	-1,41720E-004	...........
	606	613,085	-7,03553E-001	-7,03312E-001	-4,17200E-005	...........
	607	614,095	-7,03453E-001	-7,03312E-001	5,82800E-005	...........
	608	615,105	-7,03369E-001	-7,03212E-001	-4,17200E-005	...........
	609	616,115	-7,03309E-001	-7,02962E-001	-4,17200E-005	...........
	610	617,125	-7,03248E-001	-7,03062E-001	-1,41720E-004	...........
	611	618,135	-7,03176E-001	-7,03212E-001	-2,41720E-004	...........
	612	619,145	-7,03128E-001	-7,03462E-001	-4,17200E-005	...........
	613	620,155	-7,03150E-001	-7,03612E-001	-1,41720E-004	...........
	614	621,165	-7,03250E-001	-7,03612E-001	-4,17200E-005	...........
	615	622,175	-7,03384E-001	-7,03462E-001	-1,41720E-004	...........
	616	623,185	-7,03495E-001	-7,03812E-001	-1,41720E-004	...........
	617	624,195	-7,03572E-001	-7,03912E-001	-1,41720E-004	...........
	618	625,206	-7,03646E-001	-7,03812E-001	-4,17200E-005	...........
	619	626,216	-7,03724E-001	-7,03512E-001	-4,17200E-005	...........
	620	627,226	-7,03757E-001	-7,03412E-001	-1,41720E-004	...........
	621	628,236	-7,03711E-001	-7,03512E-001	-1,41720E-004	...........
	622	629,246	-7,03616E-001	-7,03412E-001	-1,41720E-004	...........
	623	630,256	-7,03523E-001	-7,03112E-001	-2,41720E-004	...........
	624	631,266	-7,03439E-001	-7,03312E-001	-1,41720E-004	...........
	625	632,276	-7,03365E-001	-7,03612E-001	-1,41720E-004	...........
	626	633,286	-7,03337E-001	-7,03512E-001	-1,41720E-004	...........
	627	634,296	-7,03376E-001	-7,03612E-001	-4,17200E-005	...........
	628	635,306	-7,03458E-001	-7,03812E-001	-1,41720E-004	...........
	629	636,316	-7,03550E-001	-7,03812E-001	-1,41720E-004	...........
	630	637,326	-7,03640E-001	-7,03612E-001	-1,41720E-004	...........
	631	638,336	-7,03696E-001	-7,03312E-001	-1,41720E-004	...........
	632	639,346	-7,03674E-001	-7,03162E-001	5,82800E-005	...........
	633	640,356	-7,03578E-001	-7,03912E-001	-1,41720E-004	...........
	634	641,366	-7,03494E-001	-7,03612E-001	-1,41720E-004	...........
	635	642,376	-7,03495E-001	-7,03512E-001	-1,41720E-004	...........
	636	643,386	-7,03547E-001	-7,03512E-001	-1,41720E-004	...........
	637	644,396	-7,03578E-001	-7,03612E-001	-1,41720E-004	...........
	638	645,406	-7,03580E-001	-7,03812E-001	-1,41720E-004	...........
	639	646,416	-7,03601E-001	-7,04012E-001	-1,41720E-004	...........
	640	647,426	-7,03671E-001	-7,03812E-001	-4,17200E-005	...........
	641	648,436	-7,03767E-001	-7,03962E-001	-1,41720E-004	...........
	642	649,446	-7,03849E-001	-7,03962E-001	-1,41720E-004	...........
	643	650,456	-7,03901E-001	-7,04012E-001	-4,17200E-005	...........
	644	651,466	-7,03935E-001	-7,03912E-001	-1,41720E-004	...........
	645	652,476	-7,03957E-001	-7,04012E-001	-2,41720E-004	...........
	646	653,486	-7,03968E-001	-7,04012E-001	-4,17200E-005	...........
	647	654,496	-7,03980E-001	-7,04162E-001	-4,17200E-005	...........
	648	655,506	-7,04008E-001	-7,04212E-001	-2,41720E-004	...........
	649	656,516	-7,04056E-001	-7,04112E-001	-1,41720E-004	...........
	650	657,526	-7,04107E-001	-7,04112E-001	-4,17200E-005	...........
	651	658,536	-7,04138E-001	-7,04262E-001	-4,17200E-005	...........
	652	659,546	-7,04150E-001	-7,03962E-001	-4,17200E-005	...........
	653	660,556	-7,04140E-001	-7,03812E-001	-4,17200E-005	...........
	654	661,566	-7,04092E-001	-7,03812E-001	-1,41720E-004	...........
	655	662,576	-7,04004E-001	-7,03812E-001	-1,41720E-004	...........
	656	663,586	-7,03912E-001	-7,03812E-001	5,82800E-005	...........
	657	664,596	-7,03848E-001	-7,03812E-001	-1,41720E-004	...........
	658	665,607	-7,03818E-001	-7,03812E-001	-1,41720E-004	...........
	659	666,617	-7,03807E-001	-7,03712E-001	-1,41720E-004	...........
	660	667,627	-7,03801E-001	-7,03912E-001	-4,17200E-005	...........
	661	668,637	-7,03802E-001	-7,04012E-001	-1,41720E-004	...........
	662	669,647	-7,03826E-001	-7,03812E-001	-1,41720E-004	...........
	663	670,657	-7,03862E-001	-7,03812E-001	-4,17200E-005	...........
	664	671,667	-7,03871E-001	-7,03412E-001	-1,41720E-004	...........
	665	672,677	-7,03816E-001	-7,03312E-001	-1,41720E-004	...........
	666	673,687	-7,03699E-001	-7,03612E-001	5,82800E-005	...........
	667	674,697	-7,03586E-001	-7,04062E-001	-1,41720E-004	...........
	668	675,707	-7,03571E-001	-7,04062E-001	-1,41720E-004	...........
	669	676,717	-7,03679E-001	-7,04012E-001	-4,17200E-005	...........
	670	677,727	-7,03827E-001	-7,03512E-001	-4,17200E-005	...........
	671	678,737	-7,03903E-001	-7,03812E-001	-4,17200E-005	...........
	672	679,747	-7,03881E-001	-7,03962E-001	-1,41720E-004	...........
	673	680,757	-7,03833E-001	-7,03812E-001	-1,41720E-004	...........
	674	681,767	-7,03816E-001	-7,03612E-001	-4,17200E-005	...........
	675	682,777	-7,03813E-001	-7,04012E-001	-4,17200E-005	...........
	676	683,787	-7,03815E-001	-7,04162E-001	-1,41720E-004	...........
	677	684,797	-7,03848E-001	-7,03712E-001	-1,41720E-004	...........
	678	685,807	-7,03891E-001	-7,03512E-001	-1,41720E-004	...........
	679	686,817	-7,03874E-001	-7,03512E-001	-1,41720E-004	...........
	680	687,827	-7,03779E-001	-7,03612E-001	-2,41720E-004	...........
	681	688,837	-7,03665E-001	-7,03512E-001	-1,41720E-004	...........
	682	689,847	-7,03584E-001	-7,03312E-001	-4,17200E-005	...........
	683	690,857	-7,03526E-001	-7,03312E-001	-2,41720E-004	...........
	684	691,867	-7,03465E-001	-7,03462E-001	-1,41720E-004	...........
	685	692,877	-7,03415E-001	-7,03512E-001	-1,41720E-004	...........
	686	693,887	-7,03399E-001	-7,03312E-001	-1,41720E-004	...........
	687	694,897	-7,03408E-001	-7,03412E-001	-2,41720E-004	...........
	688	695,907	-7,03411E-001	-7,03362E-001	-1,41720E-004	...........
	689	696,917	-7,03393E-001	-7,02962E-001	-4,17200E-005	...........
	690	697,927	-7,03339E-001	-7,02962E-001	-1,41720E-004	...........
	691	698,937	-7,03240E-001	-7,03012E-001	-4,17200E-005	...........
	692	699,947	-7,03126E-001	-7,03012E-001	-2,41720E-004	...........
	693	700,957	-7,03044E-001	-7,03012E-001	-4,17200E-005	...........
	694	701,967	-7,03004E-001	-7,02812E-001	-4,17200E-005	...........
	695	702,977	-7,02979E-001	-7,02862E-001	-1,41720E-004	...........
	696	703,987	-7,02952E-001	-7,03312E-001	-1,41720E-004	...........
	697	704,997	-7,02960E-001	-7,03512E-001	-4,17200E-005	...........
	698	706,008	-7,03053E-001	-7,03612E-001	-2,41720E-004	...........
	699	707,018	-7,03218E-001	-7,03562E-001	-3,41720E-004	...........
	700	708,028	-7,03389E-001	-7,03562E-001	-4,17200E-005	...........
	701	709,038	-7,03505E-001	-7,03512E-001	-1,41720E-004	...........
	702	710,048	-7,03548E-001	-7,03212E-001	-4,17200E-005	...........
	703	711,058	-7,03521E-001	-7,03212E-001	-1,41720E-004	...........
	704	712,068	-7,03441E-001	-7,03362E-001	-4,17200E-005	...........
	705	713,078	-7,03359E-001	-7,03462E-001	-4,17200E-005	...........
	706	714,088	-7,03321E-001	-7,03212E-001	-4,17200E-005	...........
	707	715,098	-7,03316E-001	-7,03012E-001	-1,41720E-004	...........
	708	716,108	-7,03293E-001	-7,03212E-001	-1,41720E-004	...........
	709	717,118	-7,03235E-001	-7,03012E-001	-1,41720E-004	...........
	710	718,128	-7,03166E-001	-7,02912E-001	-1,41720E-004	...........
	711	719,138	-7,03105E-001	-7,03212E-001	-4,17200E-005	...........
	712	720,148	-7,03069E-001	-7,03312E-001	-1,41720E-004	...........
	713	721,158	-7,03080E-001	-7,03012E-001	-4,17200E-005	...........
	714	722,168	-7,03109E-001	-7,02612E-001	-2,41720E-004	...........
	715	723,178	-7,03080E-001	-7,02612E-001	-1,41720E-004	...........
	716	724,188	-7,02962E-001	-7,02612E-001	-1,41720E-004	...........
	717	725,198	-7,02817E-001	-7,03012E-001	-2,41720E-004	...........
	718	726,208	-7,02740E-001	-7,03112E-001	-1,41720E-004	...........
	719	727,218	-7,02780E-001	-7,03312E-001	-4,17200E-005	...........
	720	728,228	-7,02916E-001	-7,03512E-001	-1,41720E-004	...........
	721	729,238	-7,03095E-001	-7,03512E-001	-1,41720E-004	...........
	722	730,248	-7,03271E-001	-7,03612E-001	-1,41720E-004	...........
	723	731,258	-7,03412E-001	-7,03562E-001	-1,41720E-004	...........
	724	732,268	-7,03506E-001	-7,03562E-001	-1,41720E-004	...........
	725	733,278	-7,03558E-001	-7,03712E-001	-1,41720E-004	...........
	726	734,288	-7,03586E-001	-7,03562E-001	-4,17200E-005	...........
	727	735,298	-7,03613E-001	-7,04012E-001	-1,41720E-004	...........
	728	736,308	-7,03665E-001	-7,04162E-001	-4,17200E-005	...........
	729	737,318	-7,03767E-001	-7,04112E-001	-1,41720E-004	...........
	730	738,328	-7,03899E-001	-7,03912E-001	-4,17200E-005	...........
	731	739,338	-7,03998E-001	-7,03862E-001	-1,41720E-004	...........
	732	740,348	-7,04017E-001	-7,03812E-001	-4,17200E-005	...........
	733	741,358	-7,03967E-001	-7,03612E-001	-1,41720E-004	...........
	734	742,368	-7,03880E-001	-7,03612E-001	-1,41720E-004	...........
	735	743,378	-7,03784E-001	-7,03612E-001	-1,41720E-004	...........
	736	744,388	-7,03699E-001	-7,03612E-001	-4,17200E-005	...........
	737	745,398	-7,03644E-001	-7,03612E-001	-4,17200E-005	...........
	738	746,409	-7,03621E-001	-7,03812E-001	5,82800E-005	...........
	739	747,419	-7,03630E-001	-7,03612E-001	-1,41720E-004	...........
	740	748,429	-7,03655E-001	-7,03712E-001	5,82800E-005	...........
	741	749,439	-7,03674E-001	-7,03512E-001	-1,41720E-004	...........
	742	750,449	-7,03665E-001	-7,03412E-001	-1,41720E-004	...........
	743	751,459	-7,03621E-001	-7,03512E-001	-1,41720E-004	...........
	744	752,469	-7,03558E-001	-7,03412E-001	-4,17200E-005	...........
	745	753,479	-7,03506E-001	-7,03612E-001	-4,17200E-005	...........
	746	754,489	-7,03493E-001	-7,03912E-001	-2,41720E-004	...........
	747	755,499	-7,03539E-001	-7,03812E-001	-1,41720E-004	...........
	748	756,509	-7,03633E-001	-7,03712E-001	-1,41720E-004	...........
	749	757,519	-7,03718E-001	-7,03512E-001	-4,17200E-005	...........
	750	758,529	-7,03735E-001	-7,03412E-001	-1,41720E-004	...........
	751	759,539	-7,03678E-001	-7,03512E-001	-4,17200E-005	...........
	752	760,549	-7,03591E-001	-7,03512E-001	-1,41720E-004	...........
	753	761,559	-7,03529E-001	-7,03762E-001	-1,41720E-004	...........
	754	762,569	-7,03531E-001	-7,03912E-001	-4,17200E-005	...........
	755	763,579	-7,03599E-001	-7,03812E-001	-1,41720E-004	...........
	756	764,589	-7,03700E-001	-7,03912E-001	-1,41720E-004	...........
	757	765,599	-7,03793E-001	-7,04062E-001	-1,41720E-004	...........
	758	766,609	-7,03870E-001	-7,04112E-001	-1,41720E-004	...........
	759	767,619	-7,03943E-001	-7,04112E-001	-4,17200E-005	...........
	760	768,629	-7,04012E-001	-7,04012E-001	-1,41720E-004	...........
	761	769,639	-7,04055E-001	-7,03912E-001	5,82800E-005	...........
	762	770,649	-7,04056E-001	-7,04012E-001	-1,41720E-004	...........
	763	771,659	-7,04034E-001	-7,04312E-001	-1,41720E-004	...........
	764	772,669	-7,04037E-001	-7,04212E-001	-1,41720E-004	...........
	765	773,679	-7,04085E-001	-7,04162E-001	-1,41720E-004	...........
	766	774,689	-7,04144E-001	-7,04062E-001	-1,41720E-004	...........
	767	775,699	-7,04168E-001	-7,04012E-001	-2,41720E-004	...........
	768	776,709	-7,04143E-001	-7,03912E-001	-1,41720E-004	...........
	769	777,719	-7,04074E-001	-7,03312E-001	-4,17200E-005	...........
	770	778,729	-7,03946E-001	-7,03212E-001	-1,41720E-004	...........
	771	779,739	-7,03750E-001	-7,03312E-001	-4,17200E-005	...........
	772	780,749	-7,03547E-001	-7,03812E-001	-1,41720E-004	...........
	773	781,759	-7,03447E-001	-7,04112E-001	-4,17200E-005	...........
	774	782,769	-7,03516E-001	-7,04112E-001	-1,41720E-004	...........
	775	783,779	-7,03706E-001	-7,04162E-001	-4,17200E-005	...........
	776	784,789	-7,03908E-001	-7,04012E-001	-1,41720E-004	...........
	777	785,799	-7,04051E-001	-7,04612E-001	-2,41720E-004	...........
	778	786,81	-7,04155E-001	-7,04662E-001	-1,41720E-004	...........
	779	787,82	-7,04266E-001	-7,03962E-001	-1,41720E-004	...........
	780	788,83	-7,04343E-001	-7,03812E-001	-1,41720E-004	...........
	781	789,84	-7,04305E-001	-7,03962E-001	-1,41720E-004	...........
	782	790,85	-7,04165E-001	-7,03812E-001	-4,17200E-005	...........
	783	791,86	-7,04013E-001	-7,03712E-001	-1,41720E-004	...........
	784	792,87	-7,03899E-001	-7,03712E-001	-4,17200E-005	...........
	785	793,88	-7,03816E-001	-7,03612E-001	-1,41720E-004	...........
	786	794,89	-7,03749E-001	-7,03562E-001	-1,41720E-004	...........
	787	795,9	-7,03689E-001	-7,03562E-001	-4,17200E-005	...........
	788	796,91	-7,03637E-001	-7,03612E-001	-1,41720E-004	...........
	789	797,92	-7,03609E-001	-7,04012E-001	-4,17200E-005	...........
	790	798,93	-7,03637E-001	-7,04012E-001	-1,41720E-004	...........
	791	799,94	-7,03729E-001	-7,04012E-001	-4,17200E-005	...........
	792	800,95	-7,03847E-001	-7,03912E-001	-4,17200E-005	...........
	793	801,96	-7,03932E-001	-7,03812E-001	-1,41720E-004	...........
	794	802,97	-7,03951E-001	-7,03812E-001	-2,41720E-004	...........
	795	803,98	-7,03920E-001	-7,03812E-001	-4,17200E-005	...........
	796	804,99	-7,03874E-001	-7,03912E-001	-1,41720E-004	...........
	797	806	-7,03845E-001	-7,03812E-001	-1,41720E-004	...........
	798	807,01	-7,03843E-001	-7,04012E-001	-1,41720E-004	...........
	799	808,02	-7,03864E-001	-7,04112E-001	-1,41720E-004	...........
	800	809,03	-7,03910E-001	-7,03962E-001	-1,41720E-004	...........
	801	810,04	-7,03964E-001	-7,04012E-001	5,82800E-005	...........
	802	811,05	-7,04003E-001	-7,04112E-001	-4,17200E-005	...........
	803	812,06	-7,04026E-001	-7,04112E-001	-1,41720E-004	...........
	804	813,07	-7,04048E-001	-7,04112E-001	-2,41720E-004	...........
	805	814,08	-7,04072E-001	-7,04012E-001	-1,41720E-004	...........
	806	815,09	-7,04084E-001	-7,04012E-001	-1,41720E-004	...........
	807	816,1	-7,04080E-001	-7,04312E-001	-2,41720E-004	...........
	808	817,11	-7,04085E-001	-7,04212E-001	-1,41720E-004	...........
	809	818,12	-7,04116E-001	-7,04012E-001	-2,41720E-004	...........
	810	819,13	-7,04150E-001	-7,04312E-001	-1,41720E-004	...........
	811	820,14	-7,04174E-001	-7,04512E-001	-1,41720E-004	...........
	812	821,15	-7,04207E-001	-7,03962E-001	-1,41720E-004	...........
	813	822,16	-7,04234E-001	-7,03812E-001	-4,17200E-005	...........
	814	823,17	-7,04185E-001	-7,03312E-001	-1,41720E-004	...........
	815	824,18	-7,04021E-001	-7,03362E-001	-2,41720E-004	...........
	816	825,19	-7,03789E-001	-7,03512E-001	-1,41720E-004	...........
	817	826,2	-7,03589E-001	-7,03612E-001	-1,41720E-004	...........
	818	827,211	-7,03491E-001	-7,03562E-001	-2,41720E-004	...........
	819	828,221	-7,03484E-001	-7,03312E-001	-1,41720E-004	...........
	820	829,231	-7,03497E-001	-7,03462E-001	-1,41720E-004	...........
	821	830,241	-7,03484E-001	-7,03412E-001	-1,41720E-004	...........
	822	831,251	-7,03453E-001	-7,03312E-001	-4,17200E-005	...........
	823	832,261	-7,03421E-001	-7,03412E-001	-1,41720E-004	...........
	824	833,271	-7,03392E-001	-7,03162E-001	-1,41720E-004	...........
	825	834,281	-7,03350E-001	-7,02812E-001	-4,17200E-005	...........
	826	835,291	-7,03261E-001	-7,02662E-001	-4,17200E-005	...........
	827	836,301	-7,03112E-001	-7,02812E-001	-4,17200E-005	...........
	828	837,311	-7,02941E-001	-7,02412E-001	-1,41720E-004	...........
	829	838,321	-7,02784E-001	-7,02212E-001	-2,41720E-004	...........
	830	839,331	-7,02628E-001	-7,02012E-001	-4,17200E-005	...........
	831	840,341	-7,02449E-001	-7,01862E-001	-4,17200E-005	...........
	832	841,351	-7,02254E-001	-7,01812E-001	-1,41720E-004	...........
	833	842,361	-7,02074E-001	-7,01712E-001	-1,41720E-004	...........
	834	843,371	-7,01938E-001	-7,02212E-001	-4,17200E-005	...........
	835	844,381	-7,01885E-001	-7,02312E-001	-4,17200E-005	...........
	836	845,391	-7,01941E-001	-7,02362E-001	-4,17200E-005	...........
	837	846,401	-7,02072E-001	-7,02312E-001	-1,41720E-004	...........
	838	847,411	-7,02204E-001	-7,02262E-001	-4,17200E-005	...........
	839	848,421	-7,02285E-001	-7,02362E-001	-1,41720E-004	...........
	840	849,431	-7,02317E-001	-7,02412E-001	-4,17200E-005	...........
	841	850,441	-7,02334E-001	-7,02462E-001	-1,41720E-004	...........
	842	851,451	-7,02361E-001	-7,02412E-001	-2,41720E-004	...........
	843	852,461	-7,02385E-001	-7,02012E-001	-1,41720E-004	...........
	844	853,471	-7,02356E-001	-7,01412E-001	-1,41720E-004	...........
	845	854,481	-7,02214E-001	-7,01362E-001	-1,41720E-004	...........
	846	855,491	-7,01968E-001	-7,01612E-001	-4,17200E-005	...........
	847	856,501	-7,01726E-001	-7,01812E-001	-4,17200E-005	...........
	848	857,511	-7,01610E-001	-7,02212E-001	-4,17200E-005	...........
	849	858,521	-7,01662E-001	-7,02312E-001	-1,41720E-004	...........
	850	859,531	-7,01838E-001	-7,02362E-001	-1,41720E-004	...........
	851	860,541	-7,02046E-001	-7,02312E-001	-4,17200E-005	...........
	852	861,551	-7,02207E-001	-7,02212E-001	-1,41720E-004	...........
	853	862,561	-7,02289E-001	-7,02412E-001	-1,41720E-004	...........
	854	863,571	-7,02318E-001	-7,02512E-001	-1,41720E-004	...........
	855	864,581	-7,02344E-001	-7,02512E-001	-2,41720E-004	...........
	856	865,591	-7,02391E-001	-7,02412E-001	-4,17200E-005	...........
	857	866,601	-7,02445E-001	-7,02862E-001	5,82800E-005	...........
	858	867,612	-7,02499E-001	-7,02412E-001	-1,41720E-004	...........
	859	868,622	-7,02546E-001	-7,02412E-001	-1,41720E-004	...........
	860	869,632	-7,02557E-001	-7,02512E-001	-2,41720E-004	...........
	861	870,642	-7,02535E-001	-7,02712E-001	-4,17200E-005	...........
	862	871,652	-7,02526E-001	-7,02762E-001	-2,41720E-004	...........
	863	872,662	-7,02564E-001	-7,02612E-001	-1,41720E-004	...........
	864	873,672	-7,02621E-001	-7,02612E-001	-1,41720E-004	...........
	865	874,682	-7,02654E-001	-7,02612E-001	-4,17200E-005	...........
	866	875,692	-7,02656E-001	-7,02762E-001	-1,41720E-004	...........
	867	876,702	-7,02662E-001	-7,03212E-001	-4,17200E-005	...........
	868	877,712	-7,02721E-001	-7,03012E-001	-4,17200E-005	...........
	869	878,722	-7,02834E-001	-7,02962E-001	-2,41720E-004	...........
	870	879,732	-7,02942E-001	-7,03012E-001	-4,17200E-005	...........
	871	880,742	-7,03000E-001	-7,03012E-001	-1,41720E-004	...........
	872	881,752	-7,03018E-001	-7,03212E-001	-4,17200E-005	...........
	873	882,762	-7,03039E-001	-7,03312E-001	-1,41720E-004	...........
	874	883,772	-7,03087E-001	-7,03112E-001	-4,17200E-005	...........
	875	884,782	-7,03139E-001	-7,02812E-001	-4,17200E-005	...........
	876	885,792	-7,03138E-001	-7,02812E-001	5,82800E-005	...........
	877	886,802	-7,03070E-001	-7,03112E-001	-1,41720E-004	...........
	878	887,812	-7,02994E-001	-7,03212E-001	-4,17200E-005	...........
	879	888,822	-7,02984E-001	-7,03212E-001	-4,17200E-005	...........
	880	889,832	-7,03046E-001	-7,03312E-001	-1,41720E-004	...........
	881	890,842	-7,03137E-001	-7,03412E-001	-4,17200E-005	...........
	882	891,852	-7,03224E-001	-7,03312E-001	-1,41720E-004	...........
	883	892,862	-7,03288E-001	-7,03112E-001	-4,17200E-005	...........
	884	893,872	-7,03305E-001	-7,03162E-001	-4,17200E-005	...........
	885	894,882	-7,03273E-001	-7,03212E-001	-1,41720E-004	...........
	886	895,892	-7,03224E-001	-7,03112E-001	-4,17200E-005	...........
	887	896,902	-7,03187E-001	-7,03162E-001	-4,17200E-005	...........
	888	897,912	-7,03162E-001	-7,02962E-001	-1,41720E-004	...........
	889	898,922	-7,03130E-001	-7,02812E-001	-1,41720E-004	...........
	890	899,932	-7,03069E-001	-7,02812E-001	-1,41720E-004	...........
	891	900,942	-7,02981E-001	-7,02712E-001	-4,17200E-005	...........
	892	901,952	-7,02888E-001	-7,02712E-001	-1,41720E-004	...........
	893	902,962	-7,02815E-001	-7,03012E-001	-1,41720E-004	...........
	894	903,972	-7,02793E-001	-7,03112E-001	-4,17200E-005	...........
	895	904,982	-7,02841E-001	-7,03212E-001	-4,17200E-005	...........
	896	905,992	-7,02946E-001	-7,03312E-001	5,82800E-005	...........
	897	907,002	-7,03072E-001	-7,03412E-001	-2,41720E-004	...........
	898	908,013	-7,03192E-001	-7,03462E-001	-1,41720E-004	...........
	899	909,023	-7,03294E-001	-7,03412E-001	-1,41720E-004	...........
	900	910,033	-7,03369E-001	-7,03412E-001	-4,17200E-005	...........
	901	911,043	-7,03406E-001	-7,03162E-001	-2,41720E-004	...........
	902	912,053	-7,03391E-001	-7,03012E-001	-1,41720E-004	...........
	903	913,063	-7,03328E-001	-7,03462E-001	-1,41720E-004	...........
	904	914,073	-7,03265E-001	-7,03462E-001	-4,17200E-005	...........
	905	915,083	-7,03277E-001	-7,04162E-001	-1,41720E-004	...........
	906	916,093	-7,03407E-001	-7,04212E-001	-1,41720E-004	...........
	907	917,103	-7,03630E-001	-7,03812E-001	-4,17200E-005	...........
	908	918,113	-7,03833E-001	-7,03312E-001	-4,17200E-005	...........
	909	919,123	-7,03888E-001	-7,03412E-001	-4,17200E-005	...........
	910	920,133	-7,03784E-001	-7,03762E-001	-1,41720E-004	...........
	911	921,143	-7,03641E-001	-7,03362E-001	-1,41720E-004	...........
	912	922,153	-7,03547E-001	-7,03212E-001	-4,17200E-005	...........
	913	923,163	-7,03499E-001	-7,04112E-001	-1,41720E-004	...........
	914	924,173	-7,03494E-001	-7,03462E-001	-4,17200E-005	...........
	915	925,183	-7,03536E-001	-7,03212E-001	-1,41720E-004	...........
	916	926,193	-7,03553E-001	-7,03112E-001	-1,41720E-004	...........
	917	927,203	-7,03480E-001	-7,03212E-001	-1,41720E-004	...........
	918	928,213	-7,03355E-001	-7,03312E-001	-1,41720E-004	...........
	919	929,223	-7,03261E-001	-7,03212E-001	-1,41720E-004	...........
	920	930,233	-7,03230E-001	-7,03362E-001	-1,41720E-004	...........
	921	931,243	-7,03242E-001	-7,03362E-001	-1,41720E-004	...........
	922	932,253	-7,03275E-001	-7,03312E-001	5,82800E-005	...........
	923	933,263	-7,03305E-001	-7,03162E-001	-1,41720E-004	...........
	924	934,273	-7,03304E-001	-7,02962E-001	-1,41720E-004	...........
	925	935,283	-7,03249E-001	-7,02812E-001	-4,17200E-005	...........
	926	936,293	-7,03145E-001	-7,02912E-001	-1,41720E-004	...........
	927	937,303	-7,03030E-001	-7,03062E-001	-4,17200E-005	...........
	928	938,313	-7,02961E-001	-7,03112E-001	-1,41720E-004	...........
	929	939,323	-7,02961E-001	-7,03112E-001	-4,17200E-005	...........
	930	940,333	-7,03010E-001	-7,03212E-001	-1,41720E-004	...........
	931	941,343	-7,03078E-001	-7,03462E-001	-1,41720E-004	...........
	932	942,353	-7,03158E-001	-7,03412E-001	-1,41720E-004	...........
	933	943,363	-7,03251E-001	-7,03412E-001	-1,41720E-004	...........
	934	944,373	-7,03340E-001	-7,03612E-001	-2,41720E-004	...........
	935	945,383	-7,03413E-001	-7,03562E-001	-4,17200E-005	...........
	936	946,393	-7,03475E-001	-7,03612E-001	-1,41720E-004	...........
	937	947,403	-7,03528E-001	-7,03512E-001	-1,41720E-004	...........
	938	948,414	-7,03556E-001	-7,03412E-001	-1,41720E-004	...........
	939	949,424	-7,03544E-001	-7,03112E-001	-1,41720E-004	...........
	940	950,43	-7,03481E-001	-7,03312E-001	-1,41720E-004	...........
	941	951,44	-7,03387E-001	-7,03212E-001	-1,41720E-004	...........
	942	952,45	-7,03300E-001	-7,03012E-001	-4,17200E-005	...........
	943	953,46	-7,03225E-001	-7,02762E-001	-1,41720E-004	...........
	944	954,47	-7,03132E-001	-7,02812E-001	-4,17200E-005	...........
	945	955,48	-7,03015E-001	-7,02812E-001	-1,41720E-004	...........
	946	956,49	-7,02908E-001	-7,02812E-001	-1,41720E-004	...........
	947	957,5	-7,02839E-001	-7,02762E-001	-1,41720E-004	...........
	948	958,51	-7,02800E-001	-7,02412E-001	-4,17200E-005	...........
	949	959,52	-7,02751E-001	-7,02562E-001	-1,41720E-004	...........
	950	960,53	-7,02675E-001	-7,02462E-001	-1,41720E-004	...........
	951	961,54	-7,02591E-001	-7,02412E-001	-1,41720E-004	...........
	952	962,55	-7,02526E-001	-7,02612E-001	-4,17200E-005	...........
	953	963,56	-7,02497E-001	-7,02612E-001	-1,41720E-004	...........
	954	964,57	-7,02513E-001	-7,02912E-001	-4,17200E-005	...........
	955	965,58	-7,02581E-001	-7,03012E-001	-1,41720E-004	...........
	956	966,59	-7,02693E-001	-7,02912E-001	-1,41720E-004	...........
	957	967,6	-7,02809E-001	-7,02812E-001	-1,41720E-004	...........
	958	968,61	-7,02879E-001	-7,02712E-001	-1,41720E-004	...........
	959	969,62	-7,02876E-001	-7,02512E-001	-1,41720E-004	...........
	960	970,63	-7,02808E-001	-7,02462E-001	-4,17200E-005	...........
	961	971,64	-7,02698E-001	-7,02262E-001	-1,41720E-004	...........
	962	972,65	-7,02568E-001	-7,02112E-001	-4,17200E-005	...........
	963	973,66	-7,02430E-001	-7,02012E-001	-1,41720E-004	...........
	964	974,67	-7,02285E-001	-7,01762E-001	-4,17200E-005	...........
	965	975,68	-7,02137E-001	-7,01762E-001	-2,41720E-004	...........
	966	976,69	-7,01988E-001	-7,01462E-001	-1,41720E-004	...........
	967	977,7	-7,01838E-001	-7,01312E-001	-4,17200E-005	...........
	968	978,71	-7,01683E-001	-7,01312E-001	-1,41720E-004	...........
	969	979,72	-7,01536E-001	-7,01512E-001	-4,17200E-005	...........
	970	980,73	-7,01436E-001	-7,01462E-001	-1,41720E-004	...........
	971	981,74	-7,01405E-001	-7,01412E-001	-1,41720E-004	...........
	972	982,75	-7,01415E-001	-7,01412E-001	-2,41720E-004	...........
	973	983,76	-7,01430E-001	-7,01562E-001	-1,41720E-004	...........
	974	984,77	-7,01443E-001	-7,01412E-001	-1,41720E-004	...........
	975	985,78	-7,01476E-001	-7,02512E-001	-1,41720E-004	...........
	976	986,79	-7,01593E-001	-7,02762E-001	-1,41720E-004	...........
	977	987,8	-7,01842E-001	-7,02412E-001	-1,41720E-004	...........
	978	988,81	-7,02152E-001	-7,02412E-001	-1,41720E-004	...........
	979	989,82	-7,02376E-001	-7,02262E-001	-4,17200E-005	...........
	980	990,83	-7,02449E-001	-7,02312E-001	-1,41720E-004	...........
	981	991,84	-7,02418E-001	-7,02212E-001	-2,41720E-004	...........
	982	992,85	-7,02356E-001	-7,02412E-001	-4,17200E-005	...........
	983	993,86	-7,02325E-001	-7,02912E-001	-4,17200E-005	...........
	984	994,87	-7,02374E-001	-7,02812E-001	-1,41720E-004	...........
	985	995,88	-7,02503E-001	-7,02712E-001	-1,41720E-004	...........
	986	996,89	-7,02639E-001	-7,02412E-001	-4,17200E-005	...........
	987	997,9	-7,02700E-001	-7,02812E-001	-4,17200E-005	...........
	988	998,91	-7,02687E-001	-7,02462E-001	-4,17200E-005	...........
	989	999,92	-7,02651E-001	-7,02712E-001	-1,41720E-004	...........
	990	1000,93	-7,02638E-001	-7,03212E-001	-1,41720E-004	...........
	991	1001,94	-7,02689E-001	-7,03162E-001	-1,41720E-004	...........
	992	1002,95	-7,02817E-001	-7,03062E-001	-1,41720E-004	...........
	993	1003,96	-7,02961E-001	-7,02962E-001	-4,17200E-005	...........
	994	1004,97	-7,03044E-001	-7,02812E-001	-1,41720E-004	...........
	995	1005,98	-7,03037E-001	-7,02812E-001	-1,41720E-004	...........
	996	1006,99	-7,02978E-001	-7,03112E-001	-2,41720E-004	...........
	997	1008,01	-7,02931E-001	-7,03062E-001	5,82800E-005	...........
	998	1009,02	-7,02936E-001	-7,02912E-001	-1,41720E-004	...........
	999	1010,03	-7,02972E-001	-7,03112E-001	-1,41720E-004	...........
	1000	1011,04	-7,03002E-001	-7,03012E-001	-4,17200E-005	...........
	1001	1012,05	-7,03019E-001	-7,02962E-001	-4,17200E-005	...........
	1002	1013,06	-7,03029E-001	-7,03312E-001	-1,41720E-004	...........
	1003	1014,07	-7,03047E-001	-7,03062E-001	-1,41720E-004	...........
	1004	1015,08	-7,03079E-001	-7,03012E-001	-1,41720E-004	...........
	1005	1016,09	-7,03096E-001	-7,02812E-001	5,82800E-005	...........
	1006	1017,1	-7,03064E-001	-7,02812E-001	-1,41720E-004	...........
	1007	1018,11	-7,02989E-001	-7,02762E-001	-4,17200E-005	...........
	1008	1019,12	-7,02905E-001	-7,02912E-001	-1,41720E-004	...........
	1009	1020,13	-7,02841E-001	-7,02462E-001	-1,41720E-004	...........
	1010	1021,14	-7,02782E-001	-7,02262E-001	-1,41720E-004	...........
	1011	1022,15	-7,02687E-001	-7,02412E-001	-1,41720E-004	...........
	1012	1023,16	-7,02560E-001	-7,02412E-001	-1,41720E-004	...........
	1013	1024,17	-7,02451E-001	-7,02262E-001	-1,41720E-004	...........
	1014	1025,18	-7,02384E-001	-7,02162E-001	-4,17200E-005	...........
	1015	1026,19	-7,02329E-001	-7,02012E-001	-1,41720E-004	...........
	1016	1027,2	-7,02261E-001	-7,02212E-001	5,82800E-005	...........
	1017	1028,21	-7,02194E-001	-7,02262E-001	-4,17200E-005	...........
	1018	1029,22	-7,02160E-001	-7,02012E-001	-1,41720E-004	...........
	1019	1030,23	-7,02154E-001	-7,02212E-001	-1,41720E-004	...........
	1020	1031,24	-7,02150E-001	-7,02012E-001	-4,17200E-005	...........
	1021	1032,25	-7,02132E-001	-7,01912E-001	-3,41720E-004	...........
	1022	1033,26	-7,02090E-001	-7,01762E-001	-1,41720E-004	...........
	1023	1034,27	-7,02021E-001	-7,02012E-001	-1,41720E-004	...........
	1024	1035,28	-7,01953E-001	-7,01962E-001	-1,41720E-004	...........
	1025	1036,29	-7,01920E-001	-7,01912E-001	-1,41720E-004	...........
	1026	1037,3	-7,01923E-001	-7,02012E-001	-1,41720E-004	...........
	1027	1038,31	-7,01938E-001	-7,01912E-001	-4,17200E-005	...........
	1028	1039,32	-7,01955E-001	-7,02212E-001	-1,41720E-004	...........
	1029	1040,33	-7,01976E-001	-7,01762E-001	-1,41720E-004	...........
	1030	1041,34	-7,01984E-001	-7,01612E-001	-1,41720E-004	...........
	1031	1042,35	-7,01942E-001	-7,01712E-001	5,82800E-005	...........
	1032	1043,36	-7,01852E-001	-7,01712E-001	-1,41720E-004	...........
	1033	1044,37	-7,01769E-001	-7,01912E-001	-4,17200E-005	...........
	1034	1045,38	-7,01746E-001	-7,02212E-001	-4,17200E-005	...........
	1035	1046,39	-7,01808E-001	-7,02312E-001	-4,17200E-005	...........
	1036	1047,4	-7,01939E-001	-7,02212E-001	-1,41720E-004	...........
	1037	1048,41	-7,02083E-001	-7,02162E-001	-4,17200E-005	...........
	1038	1049,42	-7,02176E-001	-7,02062E-001	-1,41720E-004	...........
	1039	1050,43	-7,02195E-001	-7,02012E-001	-4,17200E-005	...........
	1040	1051,44	-7,02162E-001	-7,02212E-001	-1,41720E-004	...........
	1041	1052,45	-7,02125E-001	-7,02212E-001	-4,17200E-005	...........
	1042	1053,46	-7,02122E-001	-7,02312E-001	-1,41720E-004	...........
	1043	1054,47	-7,02159E-001	-7,02262E-001	-2,41720E-004	...........
	1044	1055,48	-7,02204E-001	-7,02012E-001	-4,17200E-005	...........
	1045	1056,49	-7,02222E-001	-7,02212E-001	-4,17200E-005	...........
	1046	1057,5	-7,02204E-001	-7,02212E-001	-4,17200E-005	...........
	1047	1058,51	-7,02182E-001	-7,02212E-001	-1,41720E-004	...........
	1048	1059,52	-7,02179E-001	-7,02212E-001	-4,17200E-005	...........
	1049	1060,53	-7,02191E-001	-7,02212E-001	-2,41720E-004	...........
	1050	1061,54	-7,02200E-001	-7,02012E-001	-1,41720E-004	...........
	1051	1062,55	-7,02185E-001	-7,01912E-001	-1,41720E-004	...........
	1052	1063,56	-7,02129E-001	-7,01662E-001	-4,17200E-005	...........
	1053	1064,57	-7,02024E-001	-7,01512E-001	-1,41720E-004	...........
	1054	1065,58	-7,01883E-001	-7,01612E-001	-1,41720E-004	...........
	1055	1066,59	-7,01755E-001	-7,02212E-001	-1,41720E-004	...........
	1056	1067,6	-7,01710E-001	-7,01812E-001	-1,41720E-004	...........
	1057	1068,61	-7,01761E-001	-7,01812E-001	-4,17200E-005	...........
	1058	1069,62	-7,01836E-001	-7,02012E-001	-1,41720E-004	...........
	1059	1070,63	-7,01882E-001	-7,01862E-001	-4,17200E-005	...........
	1060	1071,64	-7,01902E-001	-7,01962E-001	-1,41720E-004	...........
	1061	1072,65	-7,01916E-001	-7,02012E-001	-1,41720E-004	...........
	1062	1073,66	-7,01933E-001	-7,02012E-001	-4,17200E-005	...........
	1063	1074,67	-7,01955E-001	-7,01912E-001	-1,41720E-004	...........
	1064	1075,68	-7,01969E-001	-7,01812E-001	-1,41720E-004	...........
	1065	1076,69	-7,01958E-001	-7,01912E-001	-1,41720E-004	...........
	1066	1077,7	-7,01921E-001	-7,01612E-001	-1,41720E-004	...........
	1067	1078,71	-7,01860E-001	-7,01312E-001	-1,41720E-004	...........
	1068	1079,72	-7,01758E-001	-7,01312E-001	-4,17200E-005	...........
	1069	1080,73	-7,01616E-001	-7,01412E-001	-1,41720E-004	...........
	1070	1081,74	-7,01486E-001	-7,01612E-001	-1,41720E-004	...........
	1071	1082,75	-7,01432E-001	-7,01812E-001	-1,41720E-004	...........
	1072	1083,76	-7,01477E-001	-7,01912E-001	-1,41720E-004	...........
	1073	1084,77	-7,01593E-001	-7,01812E-001	-4,17200E-005	...........
	1074	1085,78	-7,01713E-001	-7,01612E-001	-1,41720E-004	...........
	1075	1086,79	-7,01775E-001	-7,01612E-001	-1,41720E-004	...........
	1076	1087,8	-7,01760E-001	-7,01562E-001	-1,41720E-004	...........
	1077	1088,81	-7,01700E-001	-7,01562E-001	-1,41720E-004	...........
	1078	1089,82	-7,01633E-001	-7,01412E-001	-4,17200E-005	...........
	1079	1090,83	-7,01570E-001	-7,01212E-001	-4,17200E-005	...........
	1080	1091,84	-7,01494E-001	-7,01162E-001	-1,41720E-004	...........
	1081	1092,85	-7,01396E-001	-7,01212E-001	-4,17200E-005	...........
	1082	1093,86	-7,01297E-001	-7,01062E-001	-4,17200E-005	...........
	1083	1094,87	-7,01216E-001	-7,01012E-001	-1,41720E-004	...........
	1084	1095,88	-7,01153E-001	-7,01112E-001	-1,41720E-004	...........
	1085	1096,89	-7,01108E-001	-7,01212E-001	-1,41720E-004	...........
	1086	1097,9	-7,01103E-001	-7,01612E-001	-4,17200E-005	...........
	1087	1098,91	-7,01163E-001	-7,01412E-001	-1,41720E-004	...........
	1088	1099,92	-7,01276E-001	-7,01712E-001	-1,41720E-004	...........
	1089	1100,93	-7,01406E-001	-7,01762E-001	-4,17200E-005	...........
	1090	1101,94	-7,01521E-001	-7,01412E-001	-1,41720E-004	...........
	1091	1102,95	-7,01587E-001	-7,01212E-001	-4,17200E-005	...........
	1092	1103,96	-7,01565E-001	-7,01212E-001	-1,41720E-004	...........
	1093	1104,97	-7,01464E-001	-7,01212E-001	-1,41720E-004	...........
	1094	1105,98	-7,01346E-001	-7,01212E-001	-2,41720E-004	...........
	1095	1106,99	-7,01261E-001	-7,01212E-001	-1,41720E-004	...........
	1096	1108	-7,01220E-001	-7,01212E-001	-1,41720E-004	...........
	1097	1109,01	-7,01206E-001	-7,01112E-001	-4,17200E-005	...........
	1098	1110,02	-7,01194E-001	-7,01012E-001	-4,17200E-005	...........
	1099	1111,03	-7,01175E-001	-7,01562E-001	-1,41720E-004	...........
	1100	1112,04	-7,01174E-001	-7,01162E-001	-1,41720E-004	...........
	1101	1113,05	-7,01203E-001	-7,01012E-001	5,82800E-005	...........
	1102	1114,06	-7,01219E-001	-7,01062E-001	-4,17200E-005	...........
	1103	1115,07	-7,01184E-001	-7,00962E-001	-4,17200E-005	...........
	1104	1116,08	-7,01118E-001	-7,01062E-001	-2,41720E-004	...........
	1105	1117,09	-7,01065E-001	-7,01212E-001	-2,41720E-004	...........
	1106	1118,1	-7,01053E-001	-7,01212E-001	-4,17200E-005	...........
	1107	1119,11	-7,01087E-001	-7,01212E-001	-4,17200E-005	...........
	1108	1120,12	-7,01140E-001	-7,01212E-001	-1,41720E-004	...........
	1109	1121,13	-7,01183E-001	-7,01212E-001	-4,17200E-005	...........
	1110	1122,14	-7,01207E-001	-7,01262E-001	-1,41720E-004	...........
	1111	1123,15	-7,01222E-001	-7,01362E-001	-4,17200E-005	...........
	1112	1124,16	-7,01244E-001	-7,01412E-001	-4,17200E-005	...........
	1113	1125,17	-7,01284E-001	-7,01412E-001	-1,41720E-004	...........
	1114	1126,18	-7,01331E-001	-7,01262E-001	-1,41720E-004	...........
	1115	1127,19	-7,01355E-001	-7,01112E-001	-1,41720E-004	...........
	1116	1128,2	-7,01330E-001	-7,00962E-001	-1,41720E-004	...........
	1117	1129,21	-7,01251E-001	-7,00962E-001	-4,17200E-005	...........
	1118	1130,22	-7,01148E-001	-7,01112E-001	-1,41720E-004	...........
	1119	1131,23	-7,01071E-001	-7,01212E-001	-1,41720E-004	...........
	1120	1132,24	-7,01051E-001	-7,01012E-001	-1,41720E-004	...........
	1121	1133,25	-7,01069E-001	-7,01062E-001	-1,41720E-004	...........
	1122	1134,26	-7,01082E-001	-7,00912E-001	-1,41720E-004	...........
	1123	1135,27	-7,01063E-001	-7,00912E-001	-1,41720E-004	...........
	1124	1136,28	-7,01020E-001	-7,00912E-001	-4,17200E-005	...........
	1125	1137,29	-7,00971E-001	-7,00912E-001	-1,41720E-004	...........
	1126	1138,3	-7,00935E-001	-7,00862E-001	-4,17200E-005	...........
	1127	1139,31	-7,00912E-001	-7,00912E-001	-1,41720E-004	...........
	1128	1140,32	-7,00902E-001	-7,01012E-001	-4,17200E-005	...........
	1129	1141,33	-7,00909E-001	-7,01062E-001	5,82800E-005	...........
	1130	1142,34	-7,00939E-001	-7,01012E-001	-1,41720E-004	...........
	1131	1143,35	-7,00975E-001	-7,00812E-001	-4,17200E-005	...........
	1132	1144,36	-7,00984E-001	-7,00812E-001	-1,41720E-004	...........
	1133	1145,37	-7,00960E-001	-7,01212E-001	-4,17200E-005	...........
	1134	1146,38	-7,00942E-001	-7,01112E-001	-1,41720E-004	...........
	1135	1147,39	-7,00969E-001	-7,00962E-001	-1,41720E-004	...........
	1136	1148,4	-7,01029E-001	-7,01612E-001	-1,41720E-004	...........
	1137	1149,41	-7,01109E-001	-7,01462E-001	-4,17200E-005	...........
	1138	1150,42	-7,01212E-001	-7,01012E-001	-1,41720E-004	...........
	1139	1151,43	-7,01286E-001	-7,00912E-001	-1,41720E-004	...........
	1140	1152,44	-7,01260E-001	-7,00862E-001	-4,17200E-005	...........
	1141	1153,45	-7,01145E-001	-7,00862E-001	-1,41720E-004	...........
	1142	1154,46	-7,01015E-001	-7,00912E-001	-1,41720E-004	...........
	1143	1155,47	-7,00928E-001	-7,01012E-001	-4,17200E-005	...........
	1144	1156,48	-7,00906E-001	-7,01162E-001	-1,41720E-004	...........
	1145	1157,49	-7,00940E-001	-7,01062E-001	-1,41720E-004	...........
	1146	1158,5	-7,01000E-001	-7,01062E-001	-1,41720E-004	...........
	1147	1159,51	-7,01050E-001	-7,01012E-001	-4,17200E-005	...........
	1148	1160,52	-7,01066E-001	-7,00962E-001	-4,17200E-005	...........
	1149	1161,53	-7,01050E-001	-7,00912E-001	-1,41720E-004	...........
	1150	1162,54	-7,01015E-001	-7,00912E-001	-4,17200E-005	...........
	1151	1163,55	-7,00975E-001	-7,00912E-001	-1,41720E-004	...........
	1152	1164,56	-7,00942E-001	-7,00912E-001	-1,41720E-004	...........
	1153	1165,57	-7,00924E-001	-7,01012E-001	-1,41720E-004	...........
	1154	1166,58	-7,00927E-001	-7,01112E-001	-2,41720E-004	...........
	1155	1167,59	-7,00959E-001	-7,01212E-001	-4,17200E-005	...........
	1156	1168,6	-7,01019E-001	-7,01212E-001	-2,41720E-004	...........
	1157	1169,61	-7,01091E-001	-7,01212E-001	5,82800E-005	...........
	1158	1170,62	-7,01153E-001	-7,01162E-001	-4,17200E-005	...........
	1159	1171,63	-7,01188E-001	-7,01212E-001	-4,17200E-005	...........
	1160	1172,64	-7,01199E-001	-7,01212E-001	-1,41720E-004	...........
	1161	1173,65	-7,01201E-001	-7,01212E-001	-4,17200E-005	...........
	1162	1174,66	-7,01201E-001	-7,01062E-001	-1,41720E-004	...........
	1163	1175,67	-7,01192E-001	-7,01212E-001	-2,41720E-004	...........
	1164	1176,68	-7,01176E-001	-7,01112E-001	-4,17200E-005	...........
	1165	1177,69	-7,01159E-001	-7,01112E-001	-1,41720E-004	...........
	1166	1178,7	-7,01145E-001	-7,01112E-001	-4,17200E-005	...........
	1167	1179,71	-7,01132E-001	-7,01062E-001	-1,41720E-004	...........
	1168	1180,72	-7,01115E-001	-7,01012E-001	-1,41720E-004	...........
	1169	1181,73	-7,01092E-001	-7,01012E-001	-4,17200E-005	...........
	1170	1182,74	-7,01068E-001	-7,01162E-001	-4,17200E-005	...........
	1171	1183,75	-7,01057E-001	-7,01162E-001	-1,41720E-004	...........
	1172	1184,76	-7,01073E-001	-7,01162E-001	-1,41720E-004	...........
	1173	1185,77	-7,01107E-001	-7,01212E-001	-4,17200E-005	...........
	1174	1186,78	-7,01146E-001	-7,01362E-001	-1,41720E-004	...........
	1175	1187,79	-7,01193E-001	-7,01512E-001	-1,41720E-004	...........
	1176	1188,8	-7,01263E-001	-7,01562E-001	-2,41720E-004	...........
	1177	1189,81	-7,01354E-001	-7,01512E-001	-4,17200E-005	...........
	1178	1190,82	-7,01442E-001	-7,01562E-001	-1,41720E-004	...........
	1179	1191,83	-7,01503E-001	-7,01562E-001	-4,17200E-005	...........
	1180	1192,84	-7,01535E-001	-7,01462E-001	-1,41720E-004	...........
	1181	1193,85	-7,01542E-001	-7,01512E-001	-4,17200E-005	...........
	1182	1194,86	-7,01532E-001	-7,01512E-001	-1,41720E-004	...........
	1183	1195,87	-7,01516E-001	-7,01412E-001	-4,17200E-005	...........
	1184	1196,88	-7,01497E-001	-7,01362E-001	-1,41720E-004	...........
	1185	1197,89	-7,01468E-001	-7,01312E-001	-4,17200E-005	...........
	1186	1198,9	-7,01426E-001	-7,01312E-001	-4,17200E-005	...........
	1187	1199,91	-7,01380E-001	-7,01312E-001	-4,17200E-005	...........
	1188	1200,92	-7,01343E-001	-7,01312E-001	-1,41720E-004	...........
	1189	1201,93	-7,01321E-001	-7,01262E-001	-4,17200E-005	...........
	1190	1202,94	-7,01306E-001	-7,01212E-001	-1,41720E-004	...........
	1191	1203,95	-7,01288E-001	-7,01212E-001	-2,41720E-004	...........
	1192	1204,96	-7,01260E-001	-7,01012E-001	-1,41720E-004	...........
	1193	1205,97	-7,01213E-001	-7,00912E-001	-2,41720E-004	...........
	1194	1206,98	-7,01147E-001	-7,01162E-001	-4,17200E-005	...........
	1195	1207,99	-7,01087E-001	-7,01212E-001	-1,41720E-004	...........
	1196	1209	-7,01073E-001	-7,01212E-001	-1,41720E-004	...........
	1197	1210,01	-7,01112E-001	-7,01512E-001	-1,41720E-004	...........
	1198	1211,02	-7,01190E-001	-7,01462E-001	-4,17200E-005	...........
	1199	1212,03	-7,01283E-001	-7,01212E-001	-4,17200E-005	...........
	1200	1213,04	-7,01348E-001	-7,01212E-001	-2,41720E-004	...........
	1201	1214,05	-7,01353E-001	-7,01312E-001	-1,41720E-004	...........
	1202	1215,06	-7,01319E-001	-7,01312E-001	-4,17200E-005	...........
	1203	1216,07	-7,01293E-001	-7,01412E-001	-1,41720E-004	...........
	1204	1217,08	-7,01295E-001	-7,01212E-001	-4,17200E-005	...........
	1205	1218,09	-7,01307E-001	-7,01212E-001	-1,41720E-004	...........
	1206	1219,1	-7,01301E-001	-7,01262E-001	-4,17200E-005	...........
	1207	1220,11	-7,01279E-001	-7,01312E-001	-4,17200E-005	...........
	1208	1221,12	-7,01266E-001	-7,01412E-001	-1,41720E-004	...........
	1209	1222,13	-7,01279E-001	-7,01312E-001	-1,41720E-004	...........
	1210	1223,14	-7,01308E-001	-7,01312E-001	-1,41720E-004	...........
	1211	1224,15	-7,01330E-001	-7,01362E-001	-1,41720E-004	...........
	1212	1225,16	-7,01337E-001	-7,01312E-001	-1,41720E-004	...........
	1213	1226,17	-7,01337E-001	-7,01362E-001	-1,41720E-004	...........
	1214	1227,18	-7,01338E-001	-7,01412E-001	-1,41720E-004	...........
	1215	1228,19	-7,01348E-001	-7,01412E-001	-1,41720E-004	...........
	1216	1229,2	-7,01366E-001	-7,01412E-001	-1,41720E-004	...........
	1217	1230,21	-7,01390E-001	-7,01562E-001	-4,17200E-005	...........
	1218	1231,22	-7,01417E-001	-7,01412E-001	-1,41720E-004	...........
	1219	1232,23	-7,01448E-001	-7,01662E-001	-4,17200E-005	...........
	1220	1233,24	-7,01482E-001	-7,01562E-001	-2,41720E-004	...........
	1221	1234,25	-7,01536E-001	-7,02412E-001	-2,41720E-004	...........
	1222	1235,26	-7,01660E-001	-7,02812E-001	-1,41720E-004	...........
	1223	1236,27	-7,01894E-001	-7,02362E-001	-1,41720E-004	...........
	1224	1237,28	-7,02173E-001	-7,02212E-001	-4,17200E-005	...........
	1225	1238,29	-7,02354E-001	-7,02012E-001	-1,41720E-004	...........
	1226	1239,3	-7,02358E-001	-7,01562E-001	-2,41720E-004	...........
	1227	1240,31	-7,02207E-001	-7,01362E-001	-4,17200E-005	...........
	1228	1241,32	-7,01971E-001	-7,01612E-001	-1,41720E-004	...........
	1229	1242,33	-7,01743E-001	-7,01612E-001	-1,41720E-004	...........
	1230	1243,34	-7,01602E-001	-7,01612E-001	-1,41720E-004	...........
	1231	1244,35	-7,01563E-001	-7,01712E-001	-1,41720E-004	...........
	1232	1245,36	-7,01585E-001	-7,01712E-001	-1,41720E-004	...........
	1233	1246,37	-7,01628E-001	-7,01712E-001	-2,41720E-004	...........
	1234	1247,38	-7,01669E-001	-7,01712E-001	-1,41720E-004	...........
	1235	1248,39	-7,01697E-001	-7,01712E-001	-1,41720E-004	...........
	1236	1249,4	-7,01710E-001	-7,01712E-001	-4,17200E-005	...........
	1237	1250,41	-7,01728E-001	-7,02462E-001	-4,17200E-005	...........
	1238	1251,42	-7,01796E-001	-7,02112E-001	-1,41720E-004	...........
	1239	1252,43	-7,01922E-001	-7,01912E-001	-2,41720E-004	...........
	1240	1253,44	-7,02033E-001	-7,01912E-001	-1,41720E-004	...........
	1241	1254,45	-7,02059E-001	-7,01912E-001	-1,41720E-004	...........
	1242	1255,46	-7,02017E-001	-7,01912E-001	5,82800E-005	...........
	1243	1256,47	-7,01960E-001	-7,01812E-001	-1,41720E-004	...........
	1244	1257,48	-7,01915E-001	-7,01812E-001	-1,41720E-004	...........
	1245	1258,49	-7,01881E-001	-7,01912E-001	-2,41720E-004	...........
	1246	1259,5	-7,01859E-001	-7,01862E-001	-1,41720E-004	...........
	1247	1260,51	-7,01853E-001	-7,01762E-001	-2,41720E-004	...........
	1248	1261,52	-7,01849E-001	-7,01812E-001	-4,17200E-005	...........
	1249	1262,53	-7,01837E-001	-7,01812E-001	-4,17200E-005	...........
	1250	1263,54	-7,01828E-001	-7,02212E-001	-1,41720E-004	...........
	1251	1264,55	-7,01858E-001	-7,02212E-001	-4,17200E-005	...........
	1252	1265,56	-7,01944E-001	-7,02212E-001	-1,41720E-004	...........
	1253	1266,57	-7,02053E-001	-7,02012E-001	-1,41720E-004	...........
	1254	1267,58	-7,02125E-001	-7,02062E-001	-1,41720E-004	...........
	1255	1268,59	-7,02135E-001	-7,02062E-001	-1,41720E-004	...........
	1256	1269,6	-7,02107E-001	-7,01962E-001	-2,41720E-004	...........
	1257	1270,61	-7,02067E-001	-7,01912E-001	-4,17200E-005	...........
	1258	1271,62	-7,02026E-001	-7,01962E-001	-4,17200E-005	...........
	1259	1272,63	-7,01988E-001	-7,01962E-001	-1,41720E-004	...........
	1260	1273,64	-7,01964E-001	-7,02012E-001	-4,17200E-005	...........
	1261	1274,65	-7,01960E-001	-7,02012E-001	-4,17200E-005	...........
	1262	1275,66	-7,01972E-001	-7,02012E-001	-1,41720E-004	...........
	1263	1276,67	-7,01990E-001	-7,02012E-001	-4,17200E-005	...........
	1264	1277,68	-7,02003E-001	-7,01962E-001	-4,17200E-005	...........
	1265	1278,69	-7,02005E-001	-7,01962E-001	-1,41720E-004	...........
	1266	1279,7	-7,02005E-001	-7,02412E-001	-1,41720E-004	...........
	1267	1280,71	-7,02032E-001	-7,02212E-001	-4,17200E-005	...........
	1268	1281,72	-7,02100E-001	-7,02212E-001	-1,41720E-004	...........
	1269	1282,73	-7,02170E-001	-7,02012E-001	-4,17200E-005	...........
	1270	1283,74	-7,02196E-001	-7,02162E-001	-4,17200E-005	...........
	1271	1284,75	-7,02178E-001	-7,02212E-001	-4,17200E-005	...........
	1272	1285,76	-7,02154E-001	-7,02112E-001	-4,17200E-005	...........
	1273	1286,77	-7,02148E-001	-7,02212E-001	-2,41720E-004	...........
	1274	1287,78	-7,02152E-001	-7,02012E-001	-1,41720E-004	...........
	1275	1288,79	-7,02146E-001	-7,02012E-001	-1,41720E-004	...........
	1276	1289,8	-7,02123E-001	-7,02212E-001	-1,41720E-004	...........
	1277	1290,81	-7,02101E-001	-7,02212E-001	-4,17200E-005	...........
	1278	1291,82	-7,02109E-001	-7,02212E-001	-1,41720E-004	...........
	1279	1292,83	-7,02143E-001	-7,02212E-001	-1,41720E-004	...........
	1280	1293,84	-7,02180E-001	-7,02212E-001	-2,41720E-004	...........
	1281	1294,85	-7,02203E-001	-7,02212E-001	-1,41720E-004	...........
	1282	1295,86	-7,02212E-001	-7,02212E-001	5,82800E-005	...........
	1283	1296,87	-7,02211E-001	-7,02012E-001	-4,17200E-005	...........
	1284	1297,88	-7,02192E-001	-7,02112E-001	-4,17200E-005	...........
	1285	1298,89	-7,02163E-001	-7,02412E-001	-2,41720E-004	...........
	1286	1299,9	-7,02161E-001	-7,02512E-001	-4,17200E-005	...........
	1287	1300,91	-7,02216E-001	-7,02312E-001	-1,41720E-004	...........
	1288	1301,92	-7,02298E-001	-7,02262E-001	-1,41720E-004	...........
	1289	1302,93	-7,02347E-001	-7,02212E-001	-1,41720E-004	...........
	1290	1303,94	-7,02338E-001	-7,02262E-001	-1,41720E-004	...........
	1291	1304,95	-7,02299E-001	-7,02212E-001	-1,41720E-004	...........
	1292	1305,96	-7,02263E-001	-7,02212E-001	-4,17200E-005	...........
	1293	1306,97	-7,02239E-001	-7,02212E-001	-1,41720E-004	...........
	1294	1307,98	-7,02225E-001	-7,02262E-001	-1,41720E-004	...........
	1295	1308,99	-7,02222E-001	-7,02212E-001	-4,17200E-005	...........
	1296	1310	-7,02225E-001	-7,02262E-001	-1,41720E-004	...........
	1297	1311,01	-7,02232E-001	-7,02262E-001	-4,17200E-005	...........
	1298	1312,02	-7,02241E-001	-7,02312E-001	-4,17200E-005	...........
	1299	1313,03	-7,02255E-001	-7,02312E-001	-1,41720E-004	...........
	1300	1314,04	-7,02273E-001	-7,02262E-001	-1,41720E-004	...........
	1301	1315,05	-7,02285E-001	-7,02212E-001	-4,17200E-005	...........
	1302	1316,06	-7,02282E-001	-7,02212E-001	-1,41720E-004	...........
	1303	1317,07	-7,02264E-001	-7,02262E-001	5,82800E-005	...........
	1304	1318,08	-7,02247E-001	-7,02312E-001	-1,41720E-004	...........
	1305	1319,09	-7,02244E-001	-7,02212E-001	-1,41720E-004	...........
	1306	1320,1	-7,02250E-001	-7,02212E-001	-1,41720E-004	...........
	1307	1321,11	-7,02251E-001	-7,02212E-001	-2,41720E-004	...........
	1308	1322,12	-7,02240E-001	-7,02212E-001	-1,41720E-004	...........
	1309	1323,13	-7,02226E-001	-7,02212E-001	-2,41720E-004	...........
	1310	1324,14	-7,02217E-001	-7,02212E-001	5,82800E-005	...........
	1311	1325,15	-7,02213E-001	-7,02212E-001	-1,41720E-004	...........
	1312	1326,16	-7,02212E-001	-7,02212E-001	-4,17200E-005	...........
	1313	1327,17	-7,02212E-001	-7,02212E-001	-1,41720E-004	...........
	1314	1328,18	-7,02212E-001	-7,02212E-001	-1,41720E-004	...........
	1315	1329,19	-7,02212E-001	-7,02212E-001	-4,17200E-005	...........
	1316	1330,2	-7,02213E-001	-7,02212E-001	-1,41720E-004	...........
	1317	1331,21	-7,02213E-001	-7,02212E-001	-1,41720E-004	...........
	1318	1332,22	-7,02213E-001	-7,02212E-001	-1,41720E-004	...........
	1319	1333,23	-7,02213E-001	-7,02212E-001	-1,41720E-004	...........
	1320	1334,24	-7,02213E-001	-7,02212E-001	-1,41720E-004	...........
	1321	1335,25	-7,02234E-001	-7,03312E-001	-1,41720E-004	...........
	1322	1336,26	-7,02327E-001	-7,02512E-001	-1,41720E-004	...........
	1323	1337,27	-7,02489E-001	-7,02412E-001	-2,41720E-004	...........
	1324	1338,28	-7,02607E-001	-7,02362E-001	-1,41720E-004	...........
	1325	1339,29	-7,02604E-001	-7,02362E-001	-1,41720E-004	...........
	1326	1340,3	-7,02521E-001	-7,02412E-001	-1,41720E-004	...........
	1327	1341,31	-7,02440E-001	-7,02412E-001	-1,41720E-004	...........
	1328	1342,32	-7,02400E-001	-7,02412E-001	-2,41720E-004	...........
	1329	1343,33	-7,02390E-001	-7,02262E-001	-4,17200E-005	...........
	1330	1344,34	-7,02385E-001	-7,02412E-001	-1,41720E-004	...........
	1331	1345,35	-7,02371E-001	-7,02212E-001	-2,41720E-004	...........
	1332	1346,36	-7,02345E-001	-7,02162E-001	-4,17200E-005	...........
	1333	1347,37	-7,02301E-001	-7,01912E-001	-1,41720E-004	...........
	1334	1348,38	-7,02227E-001	-7,02012E-001	-4,17200E-005	...........
	1335	1349,39	-7,02131E-001	-7,01812E-001	-1,41720E-004	...........
	1336	1350,4	-7,02031E-001	-7,01712E-001	5,82800E-005	...........
	1337	1351,41	-7,01935E-001	-7,01662E-001	-2,41720E-004	...........
	1338	1352,42	-7,01840E-001	-7,01612E-001	-4,17200E-005	...........
	1339	1353,43	-7,01751E-001	-7,01512E-001	-4,17200E-005	...........
	1340	1354,44	-7,01673E-001	-7,01512E-001	-1,41720E-004	...........
	1341	1355,45	-7,01607E-001	-7,01462E-001	-4,17200E-005	...........
	1342	1356,46	-7,01554E-001	-7,01562E-001	-1,41720E-004	...........
	1343	1357,47	-7,01523E-001	-7,01562E-001	-2,41720E-004	...........
	1344	1358,48	-7,01518E-001	-7,01612E-001	-1,41720E-004	...........
	1345	1359,49	-7,01536E-001	-7,01612E-001	-1,41720E-004	...........
	1346	1360,5	-7,01564E-001	-7,01612E-001	-1,41720E-004	...........
	1347	1361,51	-7,01587E-001	-7,01512E-001	-4,17200E-005	...........
	1348	1362,52	-7,01594E-001	-7,01612E-001	-1,41720E-004	...........
	1349	1363,53	-7,01590E-001	-7,01662E-001	-1,41720E-004	...........
	1350	1364,54	-7,01593E-001	-7,01762E-001	-4,17200E-005	...........
	1351	1365,55	-7,01625E-001	-7,02012E-001	-4,17200E-005	...........
	1352	1366,56	-7,01695E-001	-7,02012E-001	-4,17200E-005	...........
	1353	1367,57	-7,01796E-001	-7,01962E-001	-1,41720E-004	...........
	1354	1368,58	-7,01893E-001	-7,02012E-001	-1,41720E-004	...........
	1355	1369,59	-7,01958E-001	-7,02012E-001	-1,41720E-004	...........
	1356	1370,6	-7,01991E-001	-7,02012E-001	-4,17200E-005	...........
	1357	1371,61	-7,02005E-001	-7,02012E-001	-1,41720E-004	...........
	1358	1372,62	-7,02010E-001	-7,02012E-001	5,82800E-005	...........
	1359	1373,63	-7,02015E-001	-7,02162E-001	-1,41720E-004	...........
	1360	1374,64	-7,02032E-001	-7,02212E-001	5,82800E-005	...........
	1361	1375,65	-7,02072E-001	-7,02362E-001	-1,41720E-004	...........
	1362	1376,66	-7,02141E-001	-7,02412E-001	-2,41720E-004	...........
	1363	1377,67	-7,02228E-001	-7,02512E-001	-1,41720E-004	...........
	1364	1378,68	-7,02321E-001	-7,02562E-001	-4,17200E-005	...........
	1365	1379,69	-7,02405E-001	-7,02412E-001	-1,41720E-004	...........
	1366	1380,7	-7,02463E-001	-7,02462E-001	-1,41720E-004	...........
	1367	1381,71	-7,02483E-001	-7,02462E-001	-1,41720E-004	...........
	1368	1382,72	-7,02479E-001	-7,02512E-001	-4,17200E-005	...........
	1369	1383,73	-7,02475E-001	-7,02562E-001	-1,41720E-004	...........
	1370	1384,74	-7,02485E-001	-7,02562E-001	-1,41720E-004	...........
	1371	1385,75	-7,02508E-001	-7,02512E-001	-1,41720E-004	...........
	1372	1386,76	-7,02530E-001	-7,02612E-001	-3,41720E-004	...........
	1373	1387,77	-7,02545E-001	-7,02512E-001	-1,41720E-004	...........
	1374	1388,78	-7,02552E-001	-7,02512E-001	-1,41720E-004	...........
	1375	1389,79	-7,02549E-001	-7,02512E-001	-1,41720E-004	...........
	1376	1390,8	-7,02538E-001	-7,02512E-001	-1,41720E-004	...........
	1377	1391,81	-7,02523E-001	-7,02412E-001	-1,41720E-004	...........
	1378	1392,82	-7,02505E-001	-7,02412E-001	-1,41720E-004	...........
	1379	1393,83	-7,02477E-001	-7,02312E-001	-2,41720E-004	...........
	1380	1394,84	-7,02439E-001	-7,02362E-001	-1,41720E-004	...........
	1381	1395,85	-7,02404E-001	-7,02562E-001	-1,41720E-004	...........
	1382	1396,86	-7,02400E-001	-7,02812E-001	-1,41720E-004	...........
	1383	1397,87	-7,02449E-001	-7,02462E-001	-1,41720E-004	...........
	1384	1398,88	-7,02519E-001	-7,02212E-001	-1,41720E-004	...........
	1385	1399,89	-7,02535E-001	-7,02312E-001	-1,41720E-004	...........
	1386	1400,9	-7,02479E-001	-7,02512E-001	-1,41720E-004	...........
	1387	1401,91	-7,02413E-001	-7,02512E-001	-1,41720E-004	...........
	1388	1402,92	-7,02400E-001	-7,02562E-001	-4,17200E-005	...........
	1389	1403,93	-7,02439E-001	-7,02612E-001	-4,17200E-005	...........
	1390	1404,94	-7,02495E-001	-7,02562E-001	-2,41720E-004	...........
	1391	1405,95	-7,02546E-001	-7,02712E-001	-4,17200E-005	...........
	1392	1406,96	-7,02599E-001	-7,03412E-001	-1,41720E-004	...........
	1393	1407,97	-7,02696E-001	-7,02812E-001	-4,17200E-005	...........
	1394	1408,98	-7,02826E-001	-7,02662E-001	-1,41720E-004	...........
	1395	1409,99	-7,02904E-001	-7,02712E-001	-4,17200E-005	...........
	1396	1411,01	-7,02883E-001	-7,02812E-001	-1,41720E-004	...........
