EXPLAIN
TAG	CORPOT
TITLE	LABEL	Mats	Test Identifier
DATE	LABEL	15.2.2023	Date
TIME	LABEL	11.25.19	Time
NOTES	NOTES	1	Notes...
	
PSTAT	PSTAT	PCI4G750-47063	Potentiostat
TIMEOUT	QUANT	3,00000E+002	Total Time (s)
SAMPLETIME	QUANT	1,00000E+000	Sample Period (s)
STABILITY	QUANT	0,00000E+000	Stability (mV/s)
AREA	QUANT	1,00000E+000	Sample Area (cm^2)
SEQUENCER	TOGGLE	TRUE	Run as Sequence
PSTATMODEL	IQUANT	37	Pstat Model
PSTATSECTION	LABEL	PCI4G750-47063	Pstat Section
PSTATSERIALNO	LABEL	47063	Pstat Serial Number
CTRLMODE	IQUANT	1	Control Mode
IESTAB	IQUANT	2	I/E Stability
CASPEED	IQUANT	2	Control Amp Speed
CONVENTION	IQUANT	1	Current Convention
ICHRANGE	IQUANT	2	Ich Range
ICHRANGEMODE	TOGGLE	T	Ich Auto Range
ICHOFFSETENABLE	TOGGLE	F	Ich Offset Enable
ICHOFFSET	QUANT	0	Ich Offset (V)
ICHFILTER	IQUANT	3	Ich Filter
VCHRANGE	IQUANT	3	Vch Range
VCHRANGEMODE	TOGGLE	T	Vch Auto Range
VCHOFFSETENABLE	TOGGLE	F	Vch Offset Enable
VCHOFFSET	QUANT	0	Vch Offset (V)
VCHFILTER	IQUANT	3	Vch Filter
ACHRANGE	IQUANT	0	Ach Range
IERANGELOWERLIMIT	IQUANT	3	I/E Range Lower Limit
IERANGEMODE	TOGGLE	F	I/E AutoRange
IERANGE	IQUANT	10	I/E Range
POSFEEDENABLE	TOGGLE	F	Positive Feedback IR Comp
POSFEEDRESISTANCE	QUANT	0	Positive Feedback Resistance (ohm)
DCCALDATE	LABEL	15.11.2022	DC Calibration Date
ACCALDATE	LABEL	15.11.2022	AC Calibration Date
FRAMEWORKVERSION	QUANT	6,33	Framework Version
CURVE	TABLE	297
	Pt	T	Vf	Vm	Ach	Over
	#	s	V vs. Ref.	V	V	bits
	0	1,01003	-6,48762E-001	-6,48762E-001	6,58280E-004	...........
	1	2,02005	-6,48737E-001	-6,47412E-001	6,58280E-004	...........
	2	3,03008	-6,48596E-001	-6,47062E-001	6,58280E-004	...........
	3	4,0401	-6,48282E-001	-6,48012E-001	6,58280E-004	...........
	4	5,05013	-6,47910E-001	-6,47312E-001	6,58280E-004	...........
	5	6,06015	-6,47672E-001	-6,48412E-001	5,58280E-004	...........
	6	7,07018	-6,47683E-001	-6,50212E-001	6,58280E-004	...........
	7	8,0802	-6,47974E-001	-6,47812E-001	6,58280E-004	...........
	8	9,09023	-6,48386E-001	-6,48412E-001	4,58280E-004	...........
	9	10,1003	-6,48617E-001	-6,48112E-001	5,58280E-004	...........
	10	11,1103	-6,48599E-001	-6,49512E-001	6,58280E-004	...........
	11	12,1203	-6,48579E-001	-6,50212E-001	6,58280E-004	...........
	12	13,1303	-6,48770E-001	-6,48612E-001	5,58280E-004	...........
	13	14,1404	-6,49036E-001	-6,47212E-001	6,58280E-004	...........
	14	15,1504	-6,49089E-001	-6,51112E-001	6,58280E-004	...........
	15	16,1604	-6,49067E-001	-6,52462E-001	5,58280E-004	...........
	16	17,1704	-6,49444E-001	-6,51512E-001	5,58280E-004	...........
	17	18,1805	-6,50256E-001	-6,51012E-001	5,58280E-004	...........
	18	19,1905	-6,51013E-001	-6,51612E-001	5,58280E-004	...........
	19	20,2005	-6,51300E-001	-6,46562E-001	6,58280E-004	...........
	20	21,2105	-6,50917E-001	-6,47012E-001	6,58280E-004	...........
	21	22,2206	-6,49927E-001	-6,49412E-001	6,58280E-004	...........
	22	23,2306	-6,48883E-001	-6,48962E-001	6,58280E-004	...........
	23	24,2406	-6,48392E-001	-6,49112E-001	3,58280E-004	...........
	24	25,2506	-6,48468E-001	-6,48812E-001	6,58280E-004	...........
	25	26,2607	-6,48724E-001	-6,48912E-001	6,58280E-004	...........
	26	27,2707	-6,48921E-001	-6,50512E-001	6,58280E-004	...........
	27	28,2807	-6,49134E-001	-6,50812E-001	5,58280E-004	...........
	28	29,2907	-6,49528E-001	-6,51762E-001	6,58280E-004	...........
	29	30,3008	-6,50129E-001	-6,52262E-001	5,58280E-004	...........
	30	31,3108	-6,50837E-001	-6,53012E-001	5,58280E-004	...........
	31	32,3208	-6,51497E-001	-6,50412E-001	5,58280E-004	...........
	32	33,3308	-6,51877E-001	-6,51162E-001	5,58280E-004	...........
	33	34,3409	-6,51807E-001	-6,49562E-001	6,58280E-004	...........
	34	35,3509	-6,51353E-001	-6,49412E-001	5,58280E-004	...........
	35	36,3609	-6,50692E-001	-6,47812E-001	6,58280E-004	...........
	36	37,3709	-6,49938E-001	-6,48062E-001	6,58280E-004	...........
	37	38,381	-6,49190E-001	-6,48362E-001	5,58280E-004	...........
	38	39,391	-6,48628E-001	-6,49262E-001	5,58280E-004	...........
	39	40,401	-6,48436E-001	-6,50162E-001	6,58280E-004	...........
	40	41,411	-6,48630E-001	-6,48712E-001	7,58280E-004	...........
	41	42,4211	-6,49000E-001	-6,50212E-001	7,58280E-004	...........
	42	43,4311	-6,49394E-001	-6,53762E-001	6,58280E-004	...........
	43	44,4411	-6,49988E-001	-6,52562E-001	6,58280E-004	...........
	44	45,4511	-6,50854E-001	-6,50012E-001	6,58280E-004	...........
	45	46,4612	-6,51550E-001	-6,51212E-001	5,58280E-004	...........
	46	47,4712	-6,51635E-001	-6,48512E-001	7,58280E-004	...........
	47	48,4812	-6,51126E-001	-6,48012E-001	6,58280E-004	...........
	48	49,4912	-6,50309E-001	-6,50462E-001	6,58280E-004	...........
	49	50,5013	-6,49641E-001	-6,51812E-001	6,58280E-004	...........
	50	51,5113	-6,49585E-001	-6,52112E-001	6,58280E-004	...........
	51	52,5213	-6,50188E-001	-6,52712E-001	5,58280E-004	...........
	52	53,5313	-6,51085E-001	-6,53312E-001	6,58280E-004	...........
	53	54,5414	-6,51934E-001	-6,53612E-001	6,58280E-004	...........
	54	55,5514	-6,52529E-001	-6,49212E-001	7,58280E-004	...........
	55	56,5614	-6,52609E-001	-6,50562E-001	6,58280E-004	...........
	56	57,5714	-6,52068E-001	-6,49912E-001	5,58280E-004	...........
	57	58,5815	-6,51261E-001	-6,51412E-001	6,58280E-004	...........
	58	59,5915	-6,50684E-001	-6,49962E-001	5,58280E-004	...........
	59	60,6015	-6,50434E-001	-6,48412E-001	6,58280E-004	...........
	60	61,6115	-6,50239E-001	-6,50512E-001	6,58280E-004	...........
	61	62,6216	-6,49984E-001	-6,50412E-001	5,58280E-004	...........
	62	63,6316	-6,49870E-001	-6,50812E-001	7,58280E-004	...........
	63	64,6416	-6,50002E-001	-6,49762E-001	6,58280E-004	...........
	64	65,6516	-6,50223E-001	-6,51412E-001	5,58280E-004	...........
	65	66,6617	-6,50400E-001	-6,50412E-001	6,58280E-004	...........
	66	67,6717	-6,50510E-001	-6,49212E-001	4,58280E-004	...........
	67	68,6817	-6,50417E-001	-6,46862E-001	5,58280E-004	...........
	68	69,6917	-6,49913E-001	-6,47612E-001	5,58280E-004	...........
	69	70,7018	-6,49077E-001	-6,48212E-001	6,58280E-004	...........
	70	71,7118	-6,48348E-001	-6,49712E-001	5,58280E-004	...........
	71	72,7218	-6,48180E-001	-6,52112E-001	6,58280E-004	...........
	72	73,7318	-6,48728E-001	-6,51812E-001	6,58280E-004	...........
	73	74,7419	-6,49757E-001	-6,51712E-001	6,58280E-004	...........
	74	75,7519	-6,50754E-001	-6,50212E-001	6,58280E-004	...........
	75	76,7619	-6,51324E-001	-6,53162E-001	5,58280E-004	...........
	76	77,7719	-6,51526E-001	-6,51212E-001	5,58280E-004	...........
	77	78,782	-6,51617E-001	-6,51012E-001	5,58280E-004	...........
	78	79,792	-6,51617E-001	-6,50312E-001	6,58280E-004	...........
	79	80,802	-6,51461E-001	-6,52862E-001	5,58280E-004	...........
	80	81,812	-6,51355E-001	-6,53212E-001	5,58280E-004	...........
	81	82,8221	-6,51584E-001	-6,52862E-001	5,58280E-004	...........
	82	83,8321	-6,52088E-001	-6,52612E-001	5,58280E-004	...........
	83	84,8421	-6,52565E-001	-6,53862E-001	6,58280E-004	...........
	84	85,8521	-6,52845E-001	-6,51312E-001	5,58280E-004	...........
	85	86,8622	-6,52932E-001	-6,54312E-001	5,58280E-004	...........
	86	87,8722	-6,52932E-001	-6,53212E-001	7,58280E-004	...........
	87	88,8822	-6,53019E-001	-6,54012E-001	6,58280E-004	...........
	88	89,8922	-6,53245E-001	-6,53862E-001	6,58280E-004	...........
	89	90,9023	-6,53490E-001	-6,52862E-001	6,58280E-004	...........
	90	91,9123	-6,53582E-001	-6,52112E-001	5,58280E-004	...........
	91	92,9223	-6,53431E-001	-6,53662E-001	5,58280E-004	...........
	92	93,9323	-6,53163E-001	-6,52612E-001	5,58280E-004	...........
	93	94,9424	-6,52973E-001	-6,52612E-001	5,58280E-004	...........
	94	95,952	-6,52879E-001	-6,52662E-001	6,58280E-004	...........
	95	96,962	-6,52825E-001	-6,54062E-001	6,58280E-004	...........
	96	97,972	-6,52863E-001	-6,52712E-001	6,58280E-004	...........
	97	98,982	-6,52985E-001	-6,52412E-001	5,58280E-004	...........
	98	99,992	-6,53069E-001	-6,54512E-001	6,58280E-004	...........
	99	101,003	-6,53155E-001	-6,54912E-001	6,58280E-004	...........
	100	102,013	-6,53420E-001	-6,53562E-001	6,58280E-004	...........
	101	103,023	-6,53771E-001	-6,52612E-001	6,58280E-004	...........
	102	104,033	-6,53839E-001	-6,50812E-001	6,58280E-004	...........
	103	105,043	-6,53394E-001	-6,50812E-001	7,58280E-004	...........
	104	106,053	-6,52540E-001	-6,49212E-001	5,58280E-004	...........
	105	107,063	-6,51626E-001	-6,53812E-001	6,58280E-004	...........
	106	108,073	-6,51114E-001	-6,52012E-001	6,58280E-004	...........
	107	109,083	-6,51255E-001	-6,53512E-001	6,58280E-004	...........
	108	110,093	-6,51807E-001	-6,51612E-001	6,58280E-004	...........
	109	111,103	-6,52341E-001	-6,54812E-001	6,58280E-004	...........
	110	112,113	-6,52729E-001	-6,53212E-001	7,58280E-004	...........
	111	113,123	-6,53027E-001	-6,51112E-001	6,58280E-004	...........
	112	114,133	-6,53048E-001	-6,49762E-001	5,58280E-004	...........
	113	115,143	-6,52567E-001	-6,51612E-001	7,58280E-004	...........
	114	116,153	-6,51838E-001	-6,52612E-001	6,58280E-004	...........
	115	117,163	-6,51432E-001	-6,52912E-001	6,58280E-004	...........
	116	118,173	-6,51587E-001	-6,52712E-001	6,58280E-004	...........
	117	119,183	-6,52023E-001	-6,51312E-001	6,58280E-004	...........
	118	120,193	-6,52281E-001	-6,50462E-001	6,58280E-004	...........
	119	121,203	-6,52099E-001	-6,50112E-001	6,58280E-004	...........
	120	122,213	-6,51595E-001	-6,52362E-001	6,58280E-004	...........
	121	123,223	-6,51194E-001	-6,52612E-001	7,58280E-004	...........
	122	124,233	-6,51207E-001	-6,50812E-001	6,58280E-004	...........
	123	125,243	-6,51446E-001	-6,50312E-001	6,58280E-004	...........
	124	126,253	-6,51516E-001	-6,52212E-001	5,58280E-004	...........
	125	127,263	-6,51387E-001	-6,51012E-001	5,58280E-004	...........
	126	128,273	-6,51227E-001	-6,48112E-001	5,58280E-004	...........
	127	129,283	-6,50940E-001	-6,49962E-001	7,58280E-004	...........
	128	130,293	-6,50402E-001	-6,48412E-001	6,58280E-004	...........
	129	131,303	-6,49790E-001	-6,49412E-001	6,58280E-004	...........
	130	132,313	-6,49359E-001	-6,49862E-001	5,58280E-004	...........
	131	133,323	-6,49233E-001	-6,50512E-001	5,58280E-004	...........
	132	134,333	-6,49439E-001	-6,51712E-001	6,58280E-004	...........
	133	135,343	-6,49795E-001	-6,44962E-001	6,58280E-004	...........
	134	136,353	-6,49751E-001	-6,44912E-001	6,58280E-004	...........
	135	137,363	-6,48867E-001	-6,46762E-001	6,58280E-004	...........
	136	138,373	-6,47538E-001	-6,46512E-001	4,58280E-004	...........
	137	139,383	-6,46594E-001	-6,47462E-001	5,58280E-004	...........
	138	140,393	-6,46385E-001	-6,48512E-001	6,58280E-004	...........
	139	141,404	-6,46759E-001	-6,49412E-001	4,58280E-004	...........
	140	142,414	-6,47510E-001	-6,52012E-001	6,58280E-004	...........
	141	143,424	-6,48566E-001	-6,53112E-001	6,58280E-004	...........
	142	144,434	-6,49871E-001	-6,52812E-001	6,58280E-004	...........
	143	145,444	-6,51170E-001	-6,52212E-001	5,58280E-004	...........
	144	146,454	-6,52063E-001	-6,50812E-001	4,58280E-004	...........
	145	147,464	-6,52344E-001	-6,52612E-001	5,58280E-004	...........
	146	148,474	-6,52249E-001	-6,53962E-001	6,58280E-004	...........
	147	149,484	-6,52239E-001	-6,52212E-001	5,58280E-004	...........
	148	150,494	-6,52409E-001	-6,50012E-001	6,58280E-004	...........
	149	151,504	-6,52359E-001	-6,49712E-001	5,58280E-004	...........
	150	152,514	-6,51843E-001	-6,51712E-001	5,58280E-004	...........
	151	153,524	-6,51177E-001	-6,50112E-001	6,58280E-004	...........
	152	154,534	-6,50787E-001	-6,52012E-001	6,58280E-004	...........
	153	155,544	-6,50807E-001	-6,53712E-001	4,58280E-004	...........
	154	156,554	-6,51231E-001	-6,53112E-001	6,58280E-004	...........
	155	157,564	-6,51963E-001	-6,54662E-001	4,58280E-004	...........
	156	158,574	-6,52795E-001	-6,55112E-001	6,58280E-004	...........
	157	159,584	-6,53596E-001	-6,55812E-001	6,58280E-004	...........
	158	160,594	-6,54319E-001	-6,54762E-001	6,58280E-004	...........
	159	161,604	-6,54803E-001	-6,52062E-001	6,58280E-004	...........
	160	162,614	-6,54776E-001	-6,52612E-001	5,58280E-004	...........
	161	163,624	-6,54239E-001	-6,54412E-001	5,58280E-004	...........
	162	164,634	-6,53677E-001	-6,55312E-001	6,58280E-004	...........
	163	165,644	-6,53572E-001	-6,53412E-001	5,58280E-004	...........
	164	166,654	-6,53871E-001	-6,55812E-001	5,58280E-004	...........
	165	167,664	-6,54226E-001	-6,53112E-001	6,58280E-004	...........
	166	168,674	-6,54442E-001	-6,55962E-001	6,58280E-004	...........
	167	169,684	-6,54540E-001	-6,53912E-001	4,58280E-004	...........
	168	170,694	-6,54620E-001	-6,55912E-001	5,58280E-004	...........
	169	171,704	-6,54706E-001	-6,52812E-001	6,58280E-004	...........
	170	172,714	-6,54724E-001	-6,56212E-001	6,58280E-004	...........
	171	173,724	-6,54659E-001	-6,53012E-001	6,58280E-004	...........
	172	174,734	-6,54552E-001	-6,54212E-001	7,58280E-004	...........
	173	175,744	-6,54432E-001	-6,56212E-001	6,58280E-004	...........
	174	176,754	-6,54451E-001	-6,55812E-001	6,58280E-004	...........
	175	177,764	-6,54787E-001	-6,57112E-001	6,58280E-004	...........
	176	178,774	-6,55347E-001	-6,55012E-001	6,58280E-004	...........
	177	179,784	-6,55869E-001	-6,58812E-001	6,58280E-004	...........
	178	180,794	-6,56357E-001	-6,60412E-001	5,58280E-004	...........
	179	181,805	-6,57045E-001	-6,56912E-001	6,58280E-004	...........
	180	182,815	-6,57765E-001	-6,55462E-001	6,58280E-004	...........
	181	183,825	-6,57936E-001	-6,55612E-001	5,58280E-004	...........
	182	184,835	-6,57370E-001	-6,54712E-001	7,58280E-004	...........
	183	185,845	-6,56477E-001	-6,55162E-001	6,58280E-004	...........
	184	186,855	-6,55693E-001	-6,54262E-001	5,58280E-004	...........
	185	187,865	-6,55159E-001	-6,54462E-001	6,58280E-004	...........
	186	188,875	-6,54802E-001	-6,53662E-001	5,58280E-004	...........
	187	189,885	-6,54477E-001	-6,52062E-001	6,58280E-004	...........
	188	190,895	-6,54055E-001	-6,53362E-001	5,58280E-004	...........
	189	191,905	-6,53576E-001	-6,53662E-001	6,58280E-004	...........
	190	192,915	-6,53254E-001	-6,53062E-001	7,58280E-004	...........
	191	193,925	-6,53160E-001	-6,52412E-001	6,58280E-004	...........
	192	194,935	-6,53151E-001	-6,54412E-001	7,58280E-004	...........
	193	195,945	-6,53176E-001	-6,53562E-001	5,58280E-004	...........
	194	196,955	-6,53254E-001	-6,50812E-001	5,58280E-004	...........
	195	197,965	-6,53181E-001	-6,51762E-001	6,58280E-004	...........
	196	198,975	-6,52818E-001	-6,53812E-001	5,58280E-004	...........
	197	199,985	-6,52480E-001	-6,53512E-001	5,58280E-004	...........
	198	200,995	-6,52548E-001	-6,54412E-001	6,58280E-004	...........
	199	202,005	-6,52963E-001	-6,52662E-001	5,58280E-004	...........
	200	203,015	-6,53354E-001	-6,53012E-001	5,58280E-004	...........
	201	204,025	-6,53466E-001	-6,53412E-001	5,58280E-004	...........
	202	205,035	-6,53390E-001	-6,54512E-001	5,58280E-004	...........
	203	206,045	-6,53394E-001	-6,53612E-001	6,58280E-004	...........
	204	207,055	-6,53540E-001	-6,52912E-001	6,58280E-004	...........
	205	208,065	-6,53659E-001	-6,54412E-001	6,58280E-004	...........
	206	209,075	-6,53710E-001	-6,55212E-001	6,58280E-004	...........
	207	210,085	-6,53876E-001	-6,54912E-001	5,58280E-004	...........
	208	211,095	-6,54227E-001	-6,54862E-001	5,58280E-004	...........
	209	212,105	-6,54583E-001	-6,54212E-001	6,58280E-004	...........
	210	213,115	-6,54718E-001	-6,52912E-001	6,58280E-004	...........
	211	214,125	-6,54520E-001	-6,52762E-001	3,58280E-004	...........
	212	215,135	-6,54041E-001	-6,52912E-001	4,58280E-004	...........
	213	216,145	-6,53527E-001	-6,54362E-001	4,58280E-004	...........
	214	217,155	-6,53272E-001	-6,53912E-001	6,58280E-004	...........
	215	218,165	-6,53357E-001	-6,53612E-001	5,58280E-004	...........
	216	219,175	-6,53569E-001	-6,52812E-001	6,58280E-004	...........
	217	220,185	-6,53606E-001	-6,51562E-001	6,58280E-004	...........
	218	221,195	-6,53336E-001	-6,52762E-001	6,58280E-004	...........
	219	222,206	-6,52850E-001	-6,49712E-001	5,58280E-004	...........
	220	223,216	-6,52537E-001	-6,65162E-001	6,58280E-004	...........
	221	224,226	-6,53197E-001	-6,58162E-001	5,58280E-004	...........
	222	225,236	-6,55046E-001	-6,53462E-001	6,58280E-004	...........
	223	226,246	-6,56718E-001	-6,52612E-001	6,58280E-004	...........
	224	227,256	-6,56772E-001	-6,51962E-001	5,58280E-004	...........
	225	228,266	-6,55438E-001	-6,53012E-001	6,58280E-004	...........
	226	229,276	-6,53943E-001	-6,54362E-001	5,58280E-004	...........
	227	230,286	-6,53144E-001	-6,53312E-001	5,58280E-004	...........
	228	231,296	-6,53055E-001	-6,52412E-001	5,58280E-004	...........
	229	232,306	-6,53167E-001	-6,52312E-001	5,58280E-004	...........
	230	233,316	-6,53081E-001	-6,52112E-001	6,58280E-004	...........
	231	234,326	-6,52766E-001	-6,50812E-001	5,58280E-004	...........
	232	235,336	-6,52353E-001	-6,52412E-001	6,58280E-004	...........
	233	236,346	-6,51993E-001	-6,51812E-001	6,58280E-004	...........
	234	237,356	-6,51817E-001	-6,52012E-001	6,58280E-004	...........
	235	238,366	-6,51839E-001	-6,52962E-001	5,58280E-004	...........
	236	239,376	-6,51979E-001	-6,51562E-001	4,58280E-004	...........
	237	240,386	-6,52107E-001	-6,51212E-001	8,58280E-004	...........
	238	241,396	-6,52090E-001	-6,52512E-001	5,58280E-004	...........
	239	242,406	-6,51987E-001	-6,52812E-001	6,58280E-004	...........
	240	243,416	-6,51959E-001	-6,50012E-001	5,58280E-004	...........
	241	244,426	-6,51920E-001	-6,51012E-001	6,58280E-004	...........
	242	245,436	-6,51658E-001	-6,50012E-001	5,58280E-004	...........
	243	246,446	-6,51219E-001	-6,51112E-001	6,58280E-004	...........
	244	247,456	-6,50809E-001	-6,48812E-001	6,58280E-004	...........
	245	248,466	-6,50496E-001	-6,51012E-001	7,58280E-004	...........
	246	249,476	-6,50273E-001	-6,50212E-001	6,58280E-004	...........
	247	250,486	-6,50204E-001	-6,51212E-001	6,58280E-004	...........
	248	251,496	-6,50368E-001	-6,53212E-001	4,58280E-004	...........
	249	252,506	-6,50832E-001	-6,53612E-001	5,58280E-004	...........
	250	253,516	-6,51538E-001	-6,50812E-001	5,58280E-004	...........
	251	254,526	-6,52094E-001	-6,49862E-001	5,58280E-004	...........
	252	255,536	-6,52070E-001	-6,51012E-001	6,58280E-004	...........
	253	256,546	-6,51511E-001	-6,48062E-001	7,58280E-004	...........
	254	257,556	-6,50778E-001	-6,51012E-001	7,58280E-004	...........
	255	258,566	-6,50195E-001	-6,50162E-001	5,58280E-004	...........
	256	259,576	-6,49981E-001	-6,51812E-001	6,58280E-004	...........
	257	260,586	-6,50166E-001	-6,50762E-001	5,58280E-004	...........
	258	261,596	-6,50549E-001	-6,51212E-001	5,58280E-004	...........
	259	262,607	-6,50891E-001	-6,51612E-001	6,58280E-004	...........
	260	263,617	-6,51135E-001	-6,52412E-001	6,58280E-004	...........
	261	264,627	-6,51360E-001	-6,51012E-001	5,58280E-004	...........
	262	265,637	-6,51551E-001	-6,51262E-001	4,58280E-004	...........
	263	266,647	-6,51528E-001	-6,47812E-001	4,58280E-004	...........
	264	267,657	-6,51170E-001	-6,52312E-001	7,58280E-004	...........
	265	268,667	-6,50703E-001	-6,51012E-001	5,58280E-004	...........
	266	269,677	-6,50548E-001	-6,52012E-001	6,58280E-004	...........
	267	270,687	-6,50785E-001	-6,50612E-001	6,58280E-004	...........
	268	271,697	-6,51082E-001	-6,50312E-001	6,58280E-004	...........
	269	272,707	-6,51141E-001	-6,50812E-001	6,58280E-004	...........
	270	273,717	-6,50957E-001	-6,49612E-001	6,58280E-004	...........
	271	274,727	-6,50676E-001	-6,50362E-001	6,58280E-004	...........
	272	275,737	-6,50447E-001	-6,51912E-001	7,58280E-004	...........
	273	276,747	-6,50437E-001	-6,51412E-001	6,58280E-004	...........
	274	277,757	-6,50662E-001	-6,49312E-001	5,58280E-004	...........
	275	278,767	-6,50831E-001	-6,50012E-001	5,58280E-004	...........
	276	279,777	-6,50695E-001	-6,50112E-001	6,58280E-004	...........
	277	280,787	-6,50444E-001	-6,53462E-001	7,58280E-004	...........
	278	281,797	-6,50550E-001	-6,54012E-001	6,58280E-004	...........
	279	282,807	-6,51239E-001	-6,52912E-001	6,58280E-004	...........
	280	283,817	-6,52186E-001	-6,52912E-001	6,58280E-004	...........
	281	284,827	-6,52886E-001	-6,53762E-001	6,58280E-004	...........
	282	285,837	-6,53236E-001	-6,54962E-001	5,58280E-004	...........
	283	286,847	-6,53463E-001	-6,52162E-001	7,58280E-004	...........
	284	287,857	-6,53627E-001	-6,53712E-001	6,58280E-004	...........
	285	288,867	-6,53609E-001	-6,52812E-001	6,58280E-004	...........
	286	289,877	-6,53479E-001	-6,55362E-001	6,58280E-004	...........
	287	290,887	-6,53522E-001	-6,55612E-001	5,58280E-004	...........
	288	291,897	-6,53866E-001	-6,52612E-001	6,58280E-004	...........
	289	292,907	-6,54179E-001	-6,51412E-001	5,58280E-004	...........
	290	293,917	-6,53967E-001	-6,51162E-001	5,58280E-004	...........
	291	294,927	-6,53260E-001	-6,55012E-001	6,58280E-004	...........
	292	295,937	-6,52718E-001	-6,54812E-001	6,58280E-004	...........
	293	296,947	-6,52878E-001	-6,55112E-001	6,58280E-004	...........
	294	297,957	-6,53556E-001	-6,53212E-001	5,58280E-004	...........
	295	298,967	-6,54091E-001	-6,51412E-001	6,58280E-004	...........
	296	299,977	-6,53973E-001	-6,50412E-001	5,58280E-004	...........
