EXPLAIN
TAG	CORPOT
TITLE	LABEL	Mats	Test Identifier
DATE	LABEL	21.2.2023	Date
TIME	LABEL	15.55.25	Time
NOTES	NOTES	1	Notes...
	
PSTAT	PSTAT	PCI4G750-47063	Potentiostat
TIMEOUT	QUANT	5,00000E+002	Total Time (s)
SAMPLETIME	QUANT	1,00000E+000	Sample Period (s)
STABILITY	QUANT	0,00000E+000	Stability (mV/s)
AREA	QUANT	1,00000E+000	Sample Area (cm^2)
SEQUENCER	TOGGLE	TRUE	Run as Sequence
PSTATMODEL	IQUANT	37	Pstat Model
PSTATSECTION	LABEL	PCI4G750-47063	Pstat Section
PSTATSERIALNO	LABEL	47063	Pstat Serial Number
CTRLMODE	IQUANT	1	Control Mode
IESTAB	IQUANT	2	I/E Stability
CASPEED	IQUANT	2	Control Amp Speed
CONVENTION	IQUANT	1	Current Convention
ICHRANGE	IQUANT	2	Ich Range
ICHRANGEMODE	TOGGLE	T	Ich Auto Range
ICHOFFSETENABLE	TOGGLE	F	Ich Offset Enable
ICHOFFSET	QUANT	0	Ich Offset (V)
ICHFILTER	IQUANT	3	Ich Filter
VCHRANGE	IQUANT	3	Vch Range
VCHRANGEMODE	TOGGLE	T	Vch Auto Range
VCHOFFSETENABLE	TOGGLE	F	Vch Offset Enable
VCHOFFSET	QUANT	0	Vch Offset (V)
VCHFILTER	IQUANT	3	Vch Filter
ACHRANGE	IQUANT	0	Ach Range
IERANGELOWERLIMIT	IQUANT	3	I/E Range Lower Limit
IERANGEMODE	TOGGLE	F	I/E AutoRange
IERANGE	IQUANT	10	I/E Range
POSFEEDENABLE	TOGGLE	F	Positive Feedback IR Comp
POSFEEDRESISTANCE	QUANT	0	Positive Feedback Resistance (ohm)
DCCALDATE	LABEL	15.11.2022	DC Calibration Date
ACCALDATE	LABEL	15.11.2022	AC Calibration Date
FRAMEWORKVERSION	QUANT	6,33	Framework Version
CURVE	TABLE	495
	Pt	T	Vf	Vm	Ach	Over
	#	s	V vs. Ref.	V	V	bits
	0	1,01003	-7,06412E-001	-7,06412E-001	1,58280E-004	...........
	1	2,02005	-7,06424E-001	-7,07012E-001	1,58280E-004	...........
	2	3,03008	-7,06487E-001	-7,07212E-001	1,58280E-004	...........
	3	4,0401	-7,06641E-001	-7,07312E-001	5,82800E-005	...........
	4	5,05013	-7,06868E-001	-7,07612E-001	5,82800E-005	...........
	5	6,06015	-7,07106E-001	-7,07462E-001	5,82800E-005	...........
	6	7,07018	-7,07295E-001	-7,07012E-001	1,58280E-004	...........
	7	8,0802	-7,07389E-001	-7,07812E-001	-4,17200E-005	...........
	8	9,09023	-7,07403E-001	-7,07012E-001	5,82800E-005	...........
	9	10,1003	-7,07370E-001	-7,06412E-001	1,58280E-004	...........
	10	11,1103	-7,07264E-001	-7,07262E-001	5,82800E-005	...........
	11	12,1203	-7,07108E-001	-7,07162E-001	5,82800E-005	...........
	12	13,1303	-7,07012E-001	-7,07062E-001	1,58280E-004	...........
	13	14,1404	-7,07026E-001	-7,07562E-001	5,82800E-005	...........
	14	15,1504	-7,07099E-001	-7,06762E-001	5,82800E-005	...........
	15	16,1604	-7,07174E-001	-7,07962E-001	1,58280E-004	...........
	16	17,1704	-7,07251E-001	-7,07712E-001	5,82800E-005	...........
	17	18,1805	-7,07389E-001	-7,08512E-001	5,82800E-005	...........
	18	19,1905	-7,07606E-001	-7,07612E-001	5,82800E-005	...........
	19	20,2005	-7,07822E-001	-7,08012E-001	1,58280E-004	...........
	20	21,2105	-7,07927E-001	-7,07162E-001	5,82800E-005	...........
	21	22,2206	-7,07872E-001	-7,07012E-001	2,58280E-004	...........
	22	23,2306	-7,07687E-001	-7,07612E-001	1,58280E-004	...........
	23	24,2406	-7,07487E-001	-7,07612E-001	1,58280E-004	...........
	24	25,2506	-7,07422E-001	-7,08812E-001	-4,17200E-005	...........
	25	26,2607	-7,07568E-001	-7,08312E-001	5,82800E-005	...........
	26	27,2707	-7,07878E-001	-7,09012E-001	1,58280E-004	...........
	27	28,2807	-7,08235E-001	-7,09112E-001	5,82800E-005	...........
	28	29,2907	-7,08556E-001	-7,09062E-001	1,58280E-004	...........
	29	30,3008	-7,08790E-001	-7,08012E-001	2,58280E-004	...........
	30	31,3108	-7,08872E-001	-7,09112E-001	1,58280E-004	...........
	31	32,3208	-7,08817E-001	-7,08612E-001	1,58280E-004	...........
	32	33,3308	-7,08755E-001	-7,09412E-001	5,82800E-005	...........
	33	34,3409	-7,08779E-001	-7,08612E-001	5,82800E-005	...........
	34	35,3509	-7,08880E-001	-7,10212E-001	5,82800E-005	...........
	35	36,3609	-7,09034E-001	-7,08962E-001	1,58280E-004	...........
	36	37,3709	-7,09188E-001	-7,08412E-001	1,58280E-004	...........
	37	38,381	-7,09214E-001	-7,08612E-001	1,58280E-004	...........
	38	39,391	-7,09057E-001	-7,08612E-001	-4,17200E-005	...........
	39	40,401	-7,08834E-001	-7,08612E-001	5,82800E-005	...........
	40	41,411	-7,08684E-001	-7,09012E-001	1,58280E-004	...........
	41	42,4211	-7,08655E-001	-7,08912E-001	1,58280E-004	...........
	42	43,4311	-7,08714E-001	-7,08612E-001	1,58280E-004	...........
	43	44,4411	-7,08760E-001	-7,07612E-001	1,58280E-004	...........
	44	45,4511	-7,08682E-001	-7,08612E-001	1,58280E-004	...........
	45	46,4612	-7,08501E-001	-7,08312E-001	5,82800E-005	...........
	46	47,4712	-7,08371E-001	-7,09212E-001	1,58280E-004	...........
	47	48,4812	-7,08402E-001	-7,08812E-001	-4,17200E-005	...........
	48	49,4912	-7,08586E-001	-7,10012E-001	1,58280E-004	...........
	49	50,5013	-7,08844E-001	-7,08412E-001	1,58280E-004	...........
	50	51,5113	-7,09038E-001	-7,08162E-001	5,82800E-005	...........
	51	52,5213	-7,09029E-001	-7,09012E-001	1,58280E-004	...........
	52	53,5313	-7,08879E-001	-7,09412E-001	2,58280E-004	...........
	53	54,5414	-7,08807E-001	-7,09162E-001	5,82800E-005	...........
	54	55,5514	-7,08914E-001	-7,09812E-001	1,58280E-004	...........
	55	56,5614	-7,09109E-001	-7,08762E-001	-4,17200E-005	...........
	56	57,5714	-7,09263E-001	-7,09662E-001	5,82800E-005	...........
	57	58,5815	-7,09317E-001	-7,08862E-001	5,82800E-005	...........
	58	59,5915	-7,09301E-001	-7,09562E-001	1,58280E-004	...........
	59	60,6015	-7,09284E-001	-7,09762E-001	1,58280E-004	...........
	60	61,6115	-7,09331E-001	-7,09712E-001	5,82800E-005	...........
	61	62,6216	-7,09450E-001	-7,09662E-001	5,82800E-005	...........
	62	63,6316	-7,09589E-001	-7,10212E-001	5,82800E-005	...........
	63	64,6416	-7,09727E-001	-7,10512E-001	5,82800E-005	...........
	64	65,6516	-7,09893E-001	-7,10012E-001	5,82800E-005	...........
	65	66,6617	-7,10057E-001	-7,09912E-001	1,58280E-004	...........
	66	67,6717	-7,10126E-001	-7,09412E-001	5,82800E-005	...........
	67	68,6817	-7,10072E-001	-7,10862E-001	5,82800E-005	...........
	68	69,6917	-7,10011E-001	-7,10162E-001	2,58280E-004	...........
	69	70,7018	-7,10060E-001	-7,10412E-001	5,82800E-005	...........
	70	71,7118	-7,10187E-001	-7,10412E-001	5,82800E-005	...........
	71	72,7218	-7,10290E-001	-7,09912E-001	1,58280E-004	...........
	72	73,7318	-7,10310E-001	-7,10012E-001	1,58280E-004	...........
	73	74,7419	-7,10240E-001	-7,09912E-001	5,82800E-005	...........
	74	75,7519	-7,10136E-001	-7,10462E-001	5,82800E-005	...........
	75	76,7619	-7,10092E-001	-7,10712E-001	5,82800E-005	...........
	76	77,7719	-7,10166E-001	-7,10412E-001	2,58280E-004	...........
	77	78,782	-7,10333E-001	-7,11562E-001	5,82800E-005	...........
	78	79,792	-7,10532E-001	-7,10012E-001	1,58280E-004	...........
	79	80,802	-7,10663E-001	-7,09662E-001	-4,17200E-005	...........
	80	81,812	-7,10606E-001	-7,10262E-001	5,82800E-005	...........
	81	82,8221	-7,10399E-001	-7,10512E-001	5,82800E-005	...........
	82	83,8321	-7,10244E-001	-7,10812E-001	1,58280E-004	...........
	83	84,8421	-7,10272E-001	-7,10712E-001	5,82800E-005	...........
	84	85,8521	-7,10432E-001	-7,10962E-001	5,82800E-005	...........
	85	86,8622	-7,10611E-001	-7,10612E-001	1,58280E-004	...........
	86	87,8722	-7,10732E-001	-7,10812E-001	1,58280E-004	...........
	87	88,8822	-7,10783E-001	-7,11012E-001	5,82800E-005	...........
	88	89,8922	-7,10798E-001	-7,10412E-001	1,58280E-004	...........
	89	90,9023	-7,10786E-001	-7,10462E-001	1,58280E-004	...........
	90	91,9123	-7,10725E-001	-7,10562E-001	5,82800E-005	...........
	91	92,9223	-7,10628E-001	-7,10312E-001	5,82800E-005	...........
	92	93,9323	-7,10543E-001	-7,10762E-001	5,82800E-005	...........
	93	94,9424	-7,10512E-001	-7,10912E-001	5,82800E-005	...........
	94	95,952	-7,10551E-001	-7,10462E-001	5,82800E-005	...........
	95	96,962	-7,10620E-001	-7,10512E-001	-4,17200E-005	...........
	96	97,972	-7,10659E-001	-7,11312E-001	5,82800E-005	...........
	97	98,982	-7,10696E-001	-7,10912E-001	5,82800E-005	...........
	98	99,992	-7,10802E-001	-7,11912E-001	5,82800E-005	...........
	99	101,003	-7,10981E-001	-7,10812E-001	1,58280E-004	...........
	100	102,013	-7,11158E-001	-7,11412E-001	5,82800E-005	...........
	101	103,023	-7,11259E-001	-7,11462E-001	5,82800E-005	...........
	102	104,033	-7,11283E-001	-7,10512E-001	-4,17200E-005	...........
	103	105,043	-7,11267E-001	-7,12412E-001	1,58280E-004	...........
	104	106,053	-7,11275E-001	-7,11162E-001	1,58280E-004	...........
	105	107,063	-7,11347E-001	-7,11212E-001	1,58280E-004	...........
	106	108,073	-7,11410E-001	-7,11012E-001	5,82800E-005	...........
	107	109,083	-7,11381E-001	-7,11612E-001	-4,17200E-005	...........
	108	110,093	-7,11329E-001	-7,12012E-001	-4,17200E-005	...........
	109	111,103	-7,11371E-001	-7,11512E-001	5,82800E-005	...........
	110	112,113	-7,11504E-001	-7,11812E-001	5,82800E-005	...........
	111	113,123	-7,11625E-001	-7,11362E-001	2,58280E-004	...........
	112	114,133	-7,11659E-001	-7,11262E-001	1,58280E-004	...........
	113	115,143	-7,11611E-001	-7,12012E-001	5,82800E-005	...........
	114	116,153	-7,11565E-001	-7,11862E-001	1,58280E-004	...........
	115	117,163	-7,11600E-001	-7,11712E-001	2,58280E-004	...........
	116	118,173	-7,11696E-001	-7,12062E-001	5,82800E-005	...........
	117	119,183	-7,11792E-001	-7,12012E-001	2,58280E-004	...........
	118	120,193	-7,11860E-001	-7,11312E-001	5,82800E-005	...........
	119	121,203	-7,11858E-001	-7,11262E-001	5,82800E-005	...........
	120	122,213	-7,11750E-001	-7,11562E-001	5,82800E-005	...........
	121	123,223	-7,11593E-001	-7,11362E-001	5,82800E-005	...........
	122	124,233	-7,11491E-001	-7,12212E-001	1,58280E-004	...........
	123	125,243	-7,11514E-001	-7,12012E-001	5,82800E-005	...........
	124	126,253	-7,11658E-001	-7,12212E-001	5,82800E-005	...........
	125	127,263	-7,11857E-001	-7,12312E-001	5,82800E-005	...........
	126	128,273	-7,12035E-001	-7,12212E-001	5,82800E-005	...........
	127	129,283	-7,12166E-001	-7,12662E-001	5,82800E-005	...........
	128	130,293	-7,12263E-001	-7,12112E-001	5,82800E-005	...........
	129	131,303	-7,12323E-001	-7,12112E-001	-4,17200E-005	...........
	130	132,313	-7,12322E-001	-7,12212E-001	5,82800E-005	...........
	131	133,323	-7,12268E-001	-7,12062E-001	5,82800E-005	...........
	132	134,333	-7,12211E-001	-7,12562E-001	1,58280E-004	...........
	133	135,343	-7,12204E-001	-7,12462E-001	-4,17200E-005	...........
	134	136,353	-7,12258E-001	-7,12212E-001	5,82800E-005	...........
	135	137,363	-7,12339E-001	-7,13012E-001	1,58280E-004	...........
	136	138,373	-7,12426E-001	-7,12562E-001	5,82800E-005	...........
	137	139,383	-7,12513E-001	-7,12062E-001	1,58280E-004	...........
	138	140,393	-7,12554E-001	-7,12812E-001	5,82800E-005	...........
	139	141,404	-7,12536E-001	-7,12562E-001	5,82800E-005	...........
	140	142,414	-7,12528E-001	-7,12912E-001	5,82800E-005	...........
	141	143,424	-7,12590E-001	-7,13412E-001	1,58280E-004	...........
	142	144,434	-7,12729E-001	-7,12812E-001	5,82800E-005	...........
	143	145,444	-7,12879E-001	-7,12512E-001	5,82800E-005	...........
	144	146,454	-7,12936E-001	-7,12662E-001	1,58280E-004	...........
	145	147,464	-7,12867E-001	-7,12562E-001	2,58280E-004	...........
	146	148,474	-7,12751E-001	-7,12812E-001	5,82800E-005	...........
	147	149,484	-7,12675E-001	-7,12662E-001	1,58280E-004	...........
	148	150,494	-7,12659E-001	-7,12612E-001	5,82800E-005	...........
	149	151,504	-7,12669E-001	-7,12762E-001	5,82800E-005	...........
	150	152,514	-7,12706E-001	-7,14162E-001	5,82800E-005	...........
	151	153,524	-7,12846E-001	-7,13412E-001	1,58280E-004	...........
	152	154,534	-7,13104E-001	-7,13412E-001	5,82800E-005	...........
	153	155,544	-7,13335E-001	-7,12562E-001	5,82800E-005	...........
	154	156,554	-7,13392E-001	-7,13712E-001	5,82800E-005	...........
	155	157,564	-7,13331E-001	-7,13912E-001	1,58280E-004	...........
	156	158,574	-7,13333E-001	-7,13562E-001	5,82800E-005	...........
	157	159,584	-7,13448E-001	-7,13612E-001	-4,17200E-005	...........
	158	160,594	-7,13576E-001	-7,13762E-001	1,58280E-004	...........
	159	161,604	-7,13649E-001	-7,13762E-001	1,58280E-004	...........
	160	162,614	-7,13672E-001	-7,12912E-001	1,58280E-004	...........
	161	163,624	-7,13627E-001	-7,13412E-001	1,58280E-004	...........
	162	164,634	-7,13518E-001	-7,13612E-001	2,58280E-004	...........
	163	165,644	-7,13422E-001	-7,13412E-001	5,82800E-005	...........
	164	166,654	-7,13401E-001	-7,13412E-001	1,58280E-004	...........
	165	167,664	-7,13429E-001	-7,13812E-001	5,82800E-005	...........
	166	168,674	-7,13478E-001	-7,13612E-001	5,82800E-005	...........
	167	169,684	-7,13543E-001	-7,13662E-001	5,82800E-005	...........
	168	170,694	-7,13609E-001	-7,13812E-001	5,82800E-005	...........
	169	171,704	-7,13663E-001	-7,13862E-001	2,58280E-004	...........
	170	172,714	-7,13720E-001	-7,14012E-001	5,82800E-005	...........
	171	173,724	-7,13797E-001	-7,14312E-001	1,58280E-004	...........
	172	174,734	-7,13900E-001	-7,13962E-001	5,82800E-005	...........
	173	175,744	-7,13997E-001	-7,13712E-001	5,82800E-005	...........
	174	176,754	-7,14030E-001	-7,14012E-001	1,58280E-004	...........
	175	177,764	-7,14005E-001	-7,14512E-001	5,82800E-005	...........
	176	178,774	-7,14012E-001	-7,14312E-001	-4,17200E-005	...........
	177	179,784	-7,14098E-001	-7,14162E-001	5,82800E-005	...........
	178	180,794	-7,14201E-001	-7,14212E-001	1,58280E-004	...........
	179	181,805	-7,14248E-001	-7,14112E-001	1,58280E-004	...........
	180	182,815	-7,14249E-001	-7,14812E-001	1,58280E-004	...........
	181	183,825	-7,14270E-001	-7,14412E-001	5,82800E-005	...........
	182	184,835	-7,14344E-001	-7,14412E-001	1,58280E-004	...........
	183	185,845	-7,14427E-001	-7,14562E-001	5,82800E-005	...........
	184	186,855	-7,14479E-001	-7,14812E-001	1,58280E-004	...........
	185	187,865	-7,14522E-001	-7,14462E-001	5,82800E-005	...........
	186	188,875	-7,14577E-001	-7,15012E-001	1,58280E-004	...........
	187	189,885	-7,14641E-001	-7,14812E-001	1,58280E-004	...........
	188	190,895	-7,14708E-001	-7,14512E-001	1,58280E-004	...........
	189	191,905	-7,14747E-001	-7,14612E-001	5,82800E-005	...........
	190	192,915	-7,14725E-001	-7,14512E-001	1,58280E-004	...........
	191	193,925	-7,14665E-001	-7,14662E-001	5,82800E-005	...........
	192	194,935	-7,14621E-001	-7,15012E-001	1,58280E-004	...........
	193	195,945	-7,14641E-001	-7,14962E-001	1,58280E-004	...........
	194	196,955	-7,14734E-001	-7,15212E-001	1,58280E-004	...........
	195	197,965	-7,14864E-001	-7,15012E-001	5,82800E-005	...........
	196	198,975	-7,14983E-001	-7,15212E-001	1,58280E-004	...........
	197	199,985	-7,15075E-001	-7,15662E-001	5,82800E-005	...........
	198	200,995	-7,15174E-001	-7,15612E-001	5,82800E-005	...........
	199	202,005	-7,15304E-001	-7,15312E-001	1,58280E-004	...........
	200	203,015	-7,15415E-001	-7,15212E-001	1,58280E-004	...........
	201	204,025	-7,15440E-001	-7,15162E-001	-4,17200E-005	...........
	202	205,035	-7,15380E-001	-7,15212E-001	5,82800E-005	...........
	203	206,045	-7,15296E-001	-7,15312E-001	1,58280E-004	...........
	204	207,055	-7,15245E-001	-7,15362E-001	-4,17200E-005	...........
	205	208,065	-7,15259E-001	-7,16062E-001	5,82800E-005	...........
	206	209,075	-7,15364E-001	-7,16012E-001	2,58280E-004	...........
	207	210,085	-7,15545E-001	-7,15612E-001	-4,17200E-005	...........
	208	211,095	-7,15718E-001	-7,15712E-001	5,82800E-005	...........
	209	212,105	-7,15789E-001	-7,15412E-001	-4,17200E-005	...........
	210	213,115	-7,15753E-001	-7,15712E-001	1,58280E-004	...........
	211	214,125	-7,15680E-001	-7,15762E-001	5,82800E-005	...........
	212	215,135	-7,15640E-001	-7,15612E-001	1,58280E-004	...........
	213	216,145	-7,15651E-001	-7,16012E-001	1,58280E-004	...........
	214	217,155	-7,15697E-001	-7,15812E-001	1,58280E-004	...........
	215	218,165	-7,15758E-001	-7,15762E-001	-4,17200E-005	...........
	216	219,175	-7,15805E-001	-7,15762E-001	5,82800E-005	...........
	217	220,185	-7,15832E-001	-7,16612E-001	1,58280E-004	...........
	218	221,195	-7,15890E-001	-7,16062E-001	5,82800E-005	...........
	219	222,206	-7,16006E-001	-7,16262E-001	5,82800E-005	...........
	220	223,216	-7,16124E-001	-7,16012E-001	1,58280E-004	...........
	221	224,226	-7,16179E-001	-7,16212E-001	1,58280E-004	...........
	222	225,236	-7,16187E-001	-7,16612E-001	5,82800E-005	...........
	223	226,246	-7,16217E-001	-7,16612E-001	1,58280E-004	...........
	224	227,256	-7,16314E-001	-7,16812E-001	5,82800E-005	...........
	225	228,266	-7,16463E-001	-7,16912E-001	1,58280E-004	...........
	226	229,276	-7,16615E-001	-7,16662E-001	5,82800E-005	...........
	227	230,286	-7,16728E-001	-7,16912E-001	1,58280E-004	...........
	228	231,296	-7,16784E-001	-7,16612E-001	5,82800E-005	...........
	229	232,306	-7,16801E-001	-7,17212E-001	5,82800E-005	...........
	230	233,316	-7,16823E-001	-7,17012E-001	5,82800E-005	...........
	231	234,326	-7,16884E-001	-7,17162E-001	1,58280E-004	...........
	232	235,336	-7,16964E-001	-7,16712E-001	5,82800E-005	...........
	233	236,346	-7,17005E-001	-7,16862E-001	5,82800E-005	...........
	234	237,356	-7,16975E-001	-7,16662E-001	1,58280E-004	...........
	235	238,366	-7,16907E-001	-7,17212E-001	1,58280E-004	...........
	236	239,376	-7,16873E-001	-7,17212E-001	1,58280E-004	...........
	237	240,386	-7,16922E-001	-7,17262E-001	1,58280E-004	...........
	238	241,396	-7,17036E-001	-7,17412E-001	5,82800E-005	...........
	239	242,406	-7,17160E-001	-7,17262E-001	5,82800E-005	...........
	240	243,416	-7,17250E-001	-7,17112E-001	1,58280E-004	...........
	241	244,426	-7,17282E-001	-7,17262E-001	5,82800E-005	...........
	242	245,436	-7,17268E-001	-7,17362E-001	5,82800E-005	...........
	243	246,446	-7,17252E-001	-7,17212E-001	5,82800E-005	...........
	244	247,456	-7,17257E-001	-7,17412E-001	5,82800E-005	...........
	245	248,466	-7,17278E-001	-7,17312E-001	1,58280E-004	...........
	246	249,476	-7,17312E-001	-7,17812E-001	5,82800E-005	...........
	247	250,486	-7,17389E-001	-7,18312E-001	5,82800E-005	...........
	248	251,496	-7,17545E-001	-7,17862E-001	5,82800E-005	...........
	249	252,506	-7,17743E-001	-7,17712E-001	5,82800E-005	...........
	250	253,516	-7,17879E-001	-7,17912E-001	1,58280E-004	...........
	251	254,526	-7,17912E-001	-7,18012E-001	5,82800E-005	...........
	252	255,536	-7,17898E-001	-7,17612E-001	1,58280E-004	...........
	253	256,546	-7,17881E-001	-7,18112E-001	1,58280E-004	...........
	254	257,556	-7,17879E-001	-7,18162E-001	1,58280E-004	...........
	255	258,566	-7,17913E-001	-7,18012E-001	1,58280E-004	...........
	256	259,576	-7,17982E-001	-7,18212E-001	5,82800E-005	...........
	257	260,586	-7,18052E-001	-7,18212E-001	1,58280E-004	...........
	258	261,596	-7,18110E-001	-7,18212E-001	5,82800E-005	...........
	259	262,607	-7,18174E-001	-7,19112E-001	5,82800E-005	...........
	260	263,617	-7,18290E-001	-7,18762E-001	1,58280E-004	...........
	261	264,627	-7,18467E-001	-7,18562E-001	1,58280E-004	...........
	262	265,637	-7,18623E-001	-7,18412E-001	5,82800E-005	...........
	263	266,647	-7,18684E-001	-7,19212E-001	5,82800E-005	...........
	264	267,657	-7,18695E-001	-7,18662E-001	5,82800E-005	...........
	265	268,667	-7,18734E-001	-7,19062E-001	5,82800E-005	...........
	266	269,677	-7,18804E-001	-7,18912E-001	5,82800E-005	...........
	267	270,687	-7,18866E-001	-7,18712E-001	5,82800E-005	...........
	268	271,697	-7,18892E-001	-7,18862E-001	5,82800E-005	...........
	269	272,707	-7,18884E-001	-7,19212E-001	1,58280E-004	...........
	270	273,717	-7,18893E-001	-7,19112E-001	-4,17200E-005	...........
	271	274,727	-7,18954E-001	-7,19312E-001	5,82800E-005	...........
	272	275,737	-7,19052E-001	-7,19212E-001	1,58280E-004	...........
	273	276,747	-7,19146E-001	-7,19312E-001	2,58280E-004	...........
	274	277,757	-7,19224E-001	-7,19812E-001	-4,17200E-005	...........
	275	278,767	-7,19306E-001	-7,19212E-001	1,58280E-004	...........
	276	279,777	-7,19391E-001	-7,19512E-001	-4,17200E-005	...........
	277	280,787	-7,19449E-001	-7,19812E-001	1,58280E-004	...........
	278	281,797	-7,19498E-001	-7,19812E-001	5,82800E-005	...........
	279	282,807	-7,19570E-001	-7,19462E-001	1,58280E-004	...........
	280	283,817	-7,19633E-001	-7,19362E-001	1,58280E-004	...........
	281	284,827	-7,19633E-001	-7,19762E-001	5,82800E-005	...........
	282	285,837	-7,19598E-001	-7,19812E-001	5,82800E-005	...........
	283	286,847	-7,19603E-001	-7,19962E-001	5,82800E-005	...........
	284	287,857	-7,19675E-001	-7,19862E-001	5,82800E-005	...........
	285	288,867	-7,19775E-001	-7,20012E-001	1,58280E-004	...........
	286	289,877	-7,19862E-001	-7,20012E-001	-4,17200E-005	...........
	287	290,887	-7,19932E-001	-7,20412E-001	1,58280E-004	...........
	288	291,897	-7,20019E-001	-7,20562E-001	5,82800E-005	...........
	289	292,907	-7,20139E-001	-7,20012E-001	5,82800E-005	...........
	290	293,917	-7,20242E-001	-7,20012E-001	1,58280E-004	...........
	291	294,927	-7,20253E-001	-7,19862E-001	1,58280E-004	...........
	292	295,937	-7,20178E-001	-7,20412E-001	5,82800E-005	...........
	293	296,947	-7,20112E-001	-7,20412E-001	5,82800E-005	...........
	294	297,957	-7,20139E-001	-7,20712E-001	1,58280E-004	...........
	295	298,967	-7,20263E-001	-7,20712E-001	5,82800E-005	...........
	296	299,977	-7,20428E-001	-7,20762E-001	5,82800E-005	...........
	297	300,987	-7,20581E-001	-7,20912E-001	-4,17200E-005	...........
	298	301,997	-7,20693E-001	-7,20612E-001	5,82800E-005	...........
	299	303,008	-7,20751E-001	-7,20562E-001	5,82800E-005	...........
	300	304,018	-7,20756E-001	-7,21162E-001	5,82800E-005	...........
	301	305,028	-7,20760E-001	-7,21112E-001	1,58280E-004	...........
	302	306,038	-7,20814E-001	-7,20612E-001	5,82800E-005	...........
	303	307,048	-7,20882E-001	-7,20812E-001	-4,17200E-005	...........
	304	308,058	-7,20892E-001	-7,20812E-001	5,82800E-005	...........
	305	309,068	-7,20858E-001	-7,21012E-001	1,58280E-004	...........
	306	310,078	-7,20842E-001	-7,21012E-001	1,58280E-004	...........
	307	311,088	-7,20869E-001	-7,20812E-001	-4,17200E-005	...........
	308	312,098	-7,20921E-001	-7,21662E-001	5,82800E-005	...........
	309	313,108	-7,21005E-001	-7,21412E-001	5,82800E-005	...........
	310	314,118	-7,21140E-001	-7,21462E-001	-4,17200E-005	...........
	311	315,128	-7,21291E-001	-7,21462E-001	1,58280E-004	...........
	312	316,138	-7,21399E-001	-7,21412E-001	5,82800E-005	...........
	313	317,148	-7,21448E-001	-7,21562E-001	5,82800E-005	...........
	314	318,158	-7,21477E-001	-7,22062E-001	5,82800E-005	...........
	315	319,168	-7,21538E-001	-7,21612E-001	1,58280E-004	...........
	316	320,178	-7,21630E-001	-7,21512E-001	5,82800E-005	...........
	317	321,188	-7,21689E-001	-7,21712E-001	1,58280E-004	...........
	318	322,198	-7,21689E-001	-7,21712E-001	5,82800E-005	...........
	319	323,208	-7,21679E-001	-7,22112E-001	5,82800E-005	...........
	320	324,218	-7,21714E-001	-7,21762E-001	5,82800E-005	...........
	321	325,228	-7,21802E-001	-7,22762E-001	5,82800E-005	...........
	322	326,238	-7,21943E-001	-7,22412E-001	5,82800E-005	...........
	323	327,248	-7,22124E-001	-7,22212E-001	5,82800E-005	...........
	324	328,258	-7,22276E-001	-7,22112E-001	5,82800E-005	...........
	325	329,268	-7,22327E-001	-7,22262E-001	5,82800E-005	...........
	326	330,278	-7,22299E-001	-7,22512E-001	5,82800E-005	...........
	327	331,288	-7,22280E-001	-7,22462E-001	1,58280E-004	...........
	328	332,298	-7,22315E-001	-7,22412E-001	1,58280E-004	...........
	329	333,308	-7,22377E-001	-7,22562E-001	5,82800E-005	...........
	330	334,318	-7,22438E-001	-7,22762E-001	5,82800E-005	...........
	331	335,328	-7,22503E-001	-7,22812E-001	5,82800E-005	...........
	332	336,338	-7,22588E-001	-7,22712E-001	1,58280E-004	...........
	333	337,348	-7,22680E-001	-7,23112E-001	5,82800E-005	...........
	334	338,358	-7,22772E-001	-7,23212E-001	5,82800E-005	...........
	335	339,368	-7,22880E-001	-7,23062E-001	5,82800E-005	...........
	336	340,378	-7,22987E-001	-7,22812E-001	5,82800E-005	...........
	337	341,388	-7,23045E-001	-7,23212E-001	5,82800E-005	...........
	338	342,398	-7,23050E-001	-7,23062E-001	1,58280E-004	...........
	339	343,409	-7,23053E-001	-7,23312E-001	1,58280E-004	...........
	340	344,419	-7,23086E-001	-7,23212E-001	5,82800E-005	...........
	341	345,429	-7,23139E-001	-7,23112E-001	1,58280E-004	...........
	342	346,439	-7,23185E-001	-7,23462E-001	5,82800E-005	...........
	343	347,449	-7,23229E-001	-7,23812E-001	-4,17200E-005	...........
	344	348,459	-7,23315E-001	-7,23612E-001	5,82800E-005	...........
	345	349,469	-7,23445E-001	-7,23612E-001	5,82800E-005	...........
	346	350,479	-7,23564E-001	-7,23812E-001	5,82800E-005	...........
	347	351,489	-7,23644E-001	-7,23862E-001	5,82800E-005	...........
	348	352,499	-7,23712E-001	-7,24212E-001	5,82800E-005	...........
	349	353,509	-7,23803E-001	-7,24012E-001	1,58280E-004	...........
	350	354,519	-7,23910E-001	-7,23962E-001	1,58280E-004	...........
	351	355,529	-7,23991E-001	-7,24012E-001	1,58280E-004	...........
	352	356,539	-7,24027E-001	-7,24312E-001	5,82800E-005	...........
	353	357,549	-7,24051E-001	-7,24112E-001	5,82800E-005	...........
	354	358,559	-7,24096E-001	-7,24412E-001	1,58280E-004	...........
	355	359,569	-7,24163E-001	-7,24412E-001	1,58280E-004	...........
	356	360,579	-7,24241E-001	-7,24412E-001	1,58280E-004	...........
	357	361,589	-7,24314E-001	-7,24262E-001	5,82800E-005	...........
	358	362,599	-7,24362E-001	-7,24562E-001	5,82800E-005	...........
	359	363,609	-7,24389E-001	-7,24612E-001	1,58280E-004	...........
	360	364,619	-7,24429E-001	-7,24612E-001	5,82800E-005	...........
	361	365,629	-7,24487E-001	-7,24412E-001	1,58280E-004	...........
	362	366,639	-7,24533E-001	-7,24612E-001	5,82800E-005	...........
	363	367,649	-7,24547E-001	-7,24512E-001	5,82800E-005	...........
	364	368,659	-7,24547E-001	-7,24712E-001	5,82800E-005	...........
	365	369,669	-7,24566E-001	-7,25012E-001	1,58280E-004	...........
	366	370,679	-7,24628E-001	-7,24812E-001	5,82800E-005	...........
	367	371,689	-7,24723E-001	-7,24862E-001	1,58280E-004	...........
	368	372,699	-7,24809E-001	-7,25012E-001	1,58280E-004	...........
	369	373,709	-7,24869E-001	-7,25012E-001	5,82800E-005	...........
	370	374,719	-7,24916E-001	-7,25012E-001	-1,41720E-004	...........
	371	375,729	-7,24962E-001	-7,25212E-001	1,58280E-004	...........
	372	376,739	-7,25019E-001	-7,25462E-001	5,82800E-005	...........
	373	377,749	-7,25104E-001	-7,25412E-001	5,82800E-005	...........
	374	378,759	-7,25216E-001	-7,25412E-001	5,82800E-005	...........
	375	379,769	-7,25321E-001	-7,25512E-001	5,82800E-005	...........
	376	380,779	-7,25399E-001	-7,25612E-001	5,82800E-005	...........
	377	381,789	-7,25458E-001	-7,25612E-001	5,82800E-005	...........
	378	382,799	-7,25516E-001	-7,25712E-001	5,82800E-005	...........
	379	383,81	-7,25580E-001	-7,26012E-001	5,82800E-005	...........
	380	384,82	-7,25665E-001	-7,26062E-001	-4,17200E-005	...........
	381	385,83	-7,25778E-001	-7,26012E-001	-4,17200E-005	...........
	382	386,84	-7,25898E-001	-7,26212E-001	1,58280E-004	...........
	383	387,85	-7,25998E-001	-7,26112E-001	1,58280E-004	...........
	384	388,86	-7,26072E-001	-7,26212E-001	1,58280E-004	...........
	385	389,87	-7,26123E-001	-7,26212E-001	5,82800E-005	...........
	386	390,88	-7,26163E-001	-7,26412E-001	1,58280E-004	...........
	387	391,89	-7,26209E-001	-7,26412E-001	5,82800E-005	...........
	388	392,9	-7,26267E-001	-7,26262E-001	1,58280E-004	...........
	389	393,91	-7,26318E-001	-7,26362E-001	5,82800E-005	...........
	390	394,92	-7,26351E-001	-7,26812E-001	5,82800E-005	...........
	391	395,93	-7,26398E-001	-7,26662E-001	1,58280E-004	...........
	392	396,94	-7,26483E-001	-7,26612E-001	5,82800E-005	...........
	393	397,95	-7,26581E-001	-7,26912E-001	5,82800E-005	...........
	394	398,96	-7,26661E-001	-7,26812E-001	5,82800E-005	...........
	395	399,97	-7,26731E-001	-7,27012E-001	5,82800E-005	...........
	396	400,98	-7,26806E-001	-7,27112E-001	1,58280E-004	...........
	397	401,99	-7,26892E-001	-7,27262E-001	5,82800E-005	...........
	398	403	-7,26992E-001	-7,27212E-001	5,82800E-005	...........
	399	404,01	-7,27092E-001	-7,27212E-001	5,82800E-005	...........
	400	405,02	-7,27175E-001	-7,27612E-001	1,58280E-004	...........
	401	406,03	-7,27251E-001	-7,27512E-001	5,82800E-005	...........
	402	407,04	-7,27347E-001	-7,27812E-001	5,82800E-005	...........
	403	408,05	-7,27466E-001	-7,27812E-001	-4,17200E-005	...........
	404	409,06	-7,27592E-001	-7,27862E-001	1,58280E-004	...........
	405	410,07	-7,27700E-001	-7,27612E-001	1,58280E-004	...........
	406	411,08	-7,27762E-001	-7,27812E-001	1,58280E-004	...........
	407	412,09	-7,27775E-001	-7,27812E-001	5,82800E-005	...........
	408	413,1	-7,27771E-001	-7,27812E-001	5,82800E-005	...........
	409	414,11	-7,27783E-001	-7,28112E-001	5,82800E-005	...........
	410	415,12	-7,27826E-001	-7,28012E-001	1,58280E-004	...........
	411	416,13	-7,27898E-001	-7,28212E-001	5,82800E-005	...........
	412	417,14	-7,27984E-001	-7,28112E-001	2,58280E-004	...........
	413	418,15	-7,28059E-001	-7,28112E-001	5,82800E-005	...........
	414	419,16	-7,28117E-001	-7,28612E-001	5,82800E-005	...........
	415	420,17	-7,28181E-001	-7,28462E-001	1,58280E-004	...........
	416	421,18	-7,28276E-001	-7,28462E-001	-4,17200E-005	...........
	417	422,19	-7,28376E-001	-7,28462E-001	1,58280E-004	...........
	418	423,201	-7,28444E-001	-7,28562E-001	5,82800E-005	...........
	419	424,211	-7,28481E-001	-7,28662E-001	1,58280E-004	...........
	420	425,221	-7,28516E-001	-7,28612E-001	1,58280E-004	...........
	421	426,231	-7,28560E-001	-7,28762E-001	5,82800E-005	...........
	422	427,241	-7,28614E-001	-7,28912E-001	5,82800E-005	...........
	423	428,251	-7,28683E-001	-7,29012E-001	5,82800E-005	...........
	424	429,261	-7,28772E-001	-7,29012E-001	1,58280E-004	...........
	425	430,271	-7,28870E-001	-7,29112E-001	5,82800E-005	...........
	426	431,281	-7,28960E-001	-7,29212E-001	5,82800E-005	...........
	427	432,291	-7,29042E-001	-7,29412E-001	2,58280E-004	...........
	428	433,301	-7,29130E-001	-7,29412E-001	5,82800E-005	...........
	429	434,311	-7,29230E-001	-7,29462E-001	5,82800E-005	...........
	430	435,321	-7,29325E-001	-7,29512E-001	1,58280E-004	...........
	431	436,331	-7,29399E-001	-7,29412E-001	5,82800E-005	...........
	432	437,341	-7,29447E-001	-7,29612E-001	5,82800E-005	...........
	433	438,351	-7,29482E-001	-7,29812E-001	5,82800E-005	...........
	434	439,361	-7,29534E-001	-7,29712E-001	1,58280E-004	...........
	435	440,371	-7,29610E-001	-7,29812E-001	-4,17200E-005	...........
	436	441,381	-7,29695E-001	-7,30212E-001	1,58280E-004	...........
	437	442,391	-7,29788E-001	-7,29962E-001	5,82800E-005	...........
	438	443,401	-7,29890E-001	-7,30012E-001	5,82800E-005	...........
	439	444,411	-7,29978E-001	-7,30362E-001	5,82800E-005	...........
	440	445,421	-7,30049E-001	-7,30212E-001	5,82800E-005	...........
	441	446,431	-7,30124E-001	-7,30412E-001	1,58280E-004	...........
	442	447,441	-7,30206E-001	-7,30412E-001	-4,17200E-005	...........
	443	448,451	-7,30286E-001	-7,30512E-001	5,82800E-005	...........
	444	449,461	-7,30359E-001	-7,30512E-001	-4,17200E-005	...........
	445	450,471	-7,30424E-001	-7,30612E-001	5,82800E-005	...........
	446	451,481	-7,30483E-001	-7,30712E-001	5,82800E-005	...........
	447	452,491	-7,30546E-001	-7,30812E-001	5,82800E-005	...........
	448	453,501	-7,30615E-001	-7,30662E-001	5,82800E-005	...........
	449	454,511	-7,30683E-001	-7,31012E-001	-4,17200E-005	...........
	450	455,521	-7,30747E-001	-7,31012E-001	1,58280E-004	...........
	451	456,531	-7,30821E-001	-7,31062E-001	5,82800E-005	...........
	452	457,541	-7,30906E-001	-7,31062E-001	5,82800E-005	...........
	453	458,551	-7,30985E-001	-7,31212E-001	5,82800E-005	...........
	454	459,561	-7,31053E-001	-7,31412E-001	5,82800E-005	...........
	455	460,571	-7,31124E-001	-7,31112E-001	1,58280E-004	...........
	456	461,581	-7,31192E-001	-7,31312E-001	1,58280E-004	...........
	457	462,591	-7,31238E-001	-7,31412E-001	5,82800E-005	...........
	458	463,602	-7,31273E-001	-7,31512E-001	5,82800E-005	...........
	459	464,612	-7,31324E-001	-7,31562E-001	5,82800E-005	...........
	460	465,622	-7,31398E-001	-7,31662E-001	5,82800E-005	...........
	461	466,632	-7,31485E-001	-7,31862E-001	1,58280E-004	...........
	462	467,642	-7,31580E-001	-7,31812E-001	5,82800E-005	...........
	463	468,652	-7,31678E-001	-7,31912E-001	1,58280E-004	...........
	464	469,662	-7,31766E-001	-7,31962E-001	1,58280E-004	...........
	465	470,672	-7,31842E-001	-7,32162E-001	1,58280E-004	...........
	466	471,682	-7,31918E-001	-7,32212E-001	5,82800E-005	...........
	467	472,692	-7,32006E-001	-7,32212E-001	5,82800E-005	...........
	468	473,702	-7,32096E-001	-7,32312E-001	5,82800E-005	...........
	469	474,712	-7,32175E-001	-7,32412E-001	5,82800E-005	...........
	470	475,722	-7,32242E-001	-7,32312E-001	5,82800E-005	...........
	471	476,732	-7,32302E-001	-7,32612E-001	5,82800E-005	...........
	472	477,742	-7,32363E-001	-7,32612E-001	5,82800E-005	...........
	473	478,752	-7,32439E-001	-7,32812E-001	5,82800E-005	...........
	474	479,762	-7,32535E-001	-7,32812E-001	-4,17200E-005	...........
	475	480,772	-7,32639E-001	-7,32862E-001	1,58280E-004	...........
	476	481,782	-7,32731E-001	-7,32812E-001	-4,17200E-005	...........
	477	482,792	-7,32799E-001	-7,33112E-001	5,82800E-005	...........
	478	483,802	-7,32859E-001	-7,33212E-001	5,82800E-005	...........
	479	484,812	-7,32943E-001	-7,33362E-001	5,82800E-005	...........
	480	485,822	-7,33057E-001	-7,33312E-001	5,82800E-005	...........
	481	486,832	-7,33176E-001	-7,33362E-001	1,58280E-004	...........
	482	487,842	-7,33269E-001	-7,33462E-001	1,58280E-004	...........
	483	488,852	-7,33335E-001	-7,33512E-001	1,58280E-004	...........
	484	489,862	-7,33390E-001	-7,33562E-001	-4,17200E-005	...........
	485	490,872	-7,33448E-001	-7,33712E-001	1,58280E-004	...........
	486	491,882	-7,33514E-001	-7,33762E-001	5,82800E-005	...........
	487	492,892	-7,33588E-001	-7,33712E-001	1,58280E-004	...........
	488	493,902	-7,33657E-001	-7,33712E-001	-4,17200E-005	...........
	489	494,912	-7,33705E-001	-7,33862E-001	5,82800E-005	...........
	490	495,922	-7,33742E-001	-7,34112E-001	5,82800E-005	...........
	491	496,932	-7,33799E-001	-7,34012E-001	1,58280E-004	...........
	492	497,942	-7,33887E-001	-7,34262E-001	1,58280E-004	...........
	493	498,952	-7,33990E-001	-7,34262E-001	5,82800E-005	...........
	494	499,962	-7,34089E-001	-7,34212E-001	1,58280E-004	...........
